D:\MassHunter\GCMS\1\data\metastasis_lineages_3replicates_3runs_10302020\L_plate2_run3_10302020.D Sat Oct 31 13:37:15 2020
Start of data points
5.99347,163430
5.99972,163996
6.00597,166897
6.01223,193820
6.01848,195372
6.02473,203219
6.03100,205189
6.03725,226663
6.04350,258888
6.04977,249827
6.05602,246744
6.06227,238324
6.06852,255631
6.07478,284871
6.08103,276901
6.08728,238696
6.09355,239551
6.09980,369900
6.10605,783857
6.11232,1291951
6.11857,1339115
6.12482,922862
6.13108,516741
6.13733,338578
6.14358,283427
6.14985,296001
6.15610,423426
6.16235,749152
6.16862,1151723
6.17487,1306356
6.18112,1028264
6.18738,641993
6.19363,387964
6.19988,283759
6.20615,243626
6.21240,220782
6.21865,225141
6.22492,212518
6.23117,205551
6.23742,199662
6.24368,196658
6.24993,179654
6.25618,173515
6.26245,162698
6.26870,170389
6.27495,173289
6.28120,191151
6.28747,189537
6.29372,174774
6.29997,192305
6.30623,270813
6.31248,432584
6.31873,717829
6.32500,1354088
6.33125,3201742
6.33750,7064500
6.34377,1.139108E+07
6.35002,1.148168E+07
6.35627,6385549
6.36253,1929578
6.36878,496924
6.37503,262274
6.38130,221999
6.38755,221685
6.39380,223470
6.40007,258528
6.40632,362311
6.41257,589337
6.41883,769696
6.42508,846452
6.43133,922710
6.43760,1042004
6.44385,946781
6.45010,806747
6.45637,1452836
6.46262,3875288
6.46887,8804175
6.47513,1.58405E+07
6.48138,2.40318E+07
6.48763,3.128387E+07
6.49390,3.720879E+07
6.50015,4.259205E+07
6.50640,4.643645E+07
6.51265,4.793554E+07
6.51892,4.755642E+07
6.52517,4.680955E+07
6.53142,4.629161E+07
6.53768,2.109504E+07
6.54393,1632380
6.55018,834855
6.55645,873811
6.56270,933613
6.56895,1189621
6.57522,1864068
6.58147,2719552
6.58772,2666960
6.59398,1619773
6.60023,714900
6.60648,386254
6.61275,331455
6.61900,304136
6.62525,300198
6.63152,297159
6.63777,308861
6.64402,307199
6.65028,307391
6.65653,290098
6.66278,304340
6.66905,389772
6.67530,502271
6.68155,532248
6.68782,439328
6.69407,347263
6.70032,307568
6.70658,301441
6.71283,305880
6.71908,332015
6.72533,337022
6.73160,354775
6.73785,364125
6.74410,381098
6.75037,390729
6.75662,386963
6.76287,394515
6.76913,392647
6.77538,384174
6.78163,388195
6.78790,402459
6.79415,414342
6.80040,439663
6.80667,490750
6.81292,538691
6.81917,537677
6.82543,519119
6.83168,507668
6.83793,520979
6.84420,564846
6.85045,651876
6.85670,668269
6.86297,617993
6.86922,549384
6.87547,551461
6.88173,663064
6.88798,823050
6.89423,883593
6.90050,771436
6.90675,633828
6.91300,539060
6.91927,493771
6.92552,482589
6.93177,460334
6.93803,467627
6.94428,466467
6.95053,463532
6.95678,463650
6.96305,442245
6.96930,425414
6.97555,408731
6.98182,392024
6.98807,388043
6.99432,367848
7.00058,347079
7.00683,337421
7.01308,342859
7.01935,377800
7.02560,558930
7.03185,1094867
7.03812,2509472
7.04437,5264819
7.05062,8366144
7.05688,8964767
7.06313,6004377
7.06938,2436903
7.07565,759971
7.08190,313323
7.08815,231083
7.09442,200380
7.10067,189481
7.10692,186625
7.11318,174045
7.11943,165931
7.12568,162887
7.13195,168586
7.13820,229994
7.14445,378386
7.15072,579374
7.15697,653668
7.16322,504708
7.16947,290377
7.17573,183729
7.18198,144624
7.18823,138254
7.19450,155336
7.20075,203294
7.20700,257844
7.21327,271715
7.21952,231319
7.22577,174799
7.23203,151243
7.23828,165507
7.24453,191538
7.25080,239601
7.25705,377738
7.26330,612906
7.26957,782037
7.27582,722195
7.28207,501600
7.28833,297243
7.29458,204396
7.30083,176365
7.30710,161308
7.31335,159614
7.31960,149734
7.32587,133820
7.33212,126623
7.33837,123827
7.34463,124809
7.35088,127835
7.35713,125550
7.36340,117673
7.36965,117956
7.37590,122968
7.38217,124070
7.38842,146394
7.39467,167346
7.40092,161042
7.40718,151870
7.41343,165333
7.41968,228211
7.42595,325553
7.43220,383392
7.43845,381748
7.44472,306346
7.45097,212719
7.45722,170225
7.46348,165382
7.46973,173273
7.47598,177296
7.48225,184756
7.48850,208700
7.49475,246278
7.50102,325684
7.50727,420150
7.51352,405259
7.51978,298401
7.52603,196227
7.53228,143696
7.53855,133043
7.54480,153138
7.55105,346755
7.55732,1353704
7.56357,4656482
7.56982,1.154698E+07
7.57608,2.091486E+07
7.58233,2.847371E+07
7.58858,2.975552E+07
7.59485,2.102222E+07
7.60110,9272742
7.60735,4727523
7.61360,3569016
7.61987,2376260
7.62612,1340030
7.63237,803534
7.63863,508141
7.64488,325635
7.65113,252878
7.65740,213525
7.66365,208477
7.66990,231028
7.67617,330414
7.68242,446597
7.68867,487851
7.69493,417454
7.70118,301001
7.70743,225308
7.71370,261849
7.71995,363069
7.72620,421431
7.73247,396137
7.73872,326033
7.74497,254376
7.75123,211544
7.75748,187372
7.76373,166021
7.77000,167592
7.77625,178260
7.78250,187144
7.78877,187600
7.79502,174942
7.80127,162083
7.80753,151910
7.81378,154638
7.82003,185512
7.82628,253532
7.83255,334038
7.83880,349674
7.84505,293892
7.85132,230474
7.85757,221769
7.86382,246418
7.87008,270916
7.87633,269239
7.88258,226049
7.88885,194088
7.89510,182724
7.90135,179825
7.90762,194797
7.91387,207744
7.92012,206680
7.92638,195035
7.93263,187623
7.93888,179552
7.94515,203554
7.95140,270269
7.95765,352384
7.96392,371305
7.97017,329233
7.97642,286993
7.98268,301855
7.98893,406202
7.99518,677402
8.00145,1038858
8.00770,1376196
8.01395,1906049
8.02022,2552668
8.02647,2714567
8.03272,2067665
8.03898,1311315
8.04523,972237
8.05148,1006349
8.05773,1067291
8.06400,900282
8.07025,592002
8.07650,368294
8.08277,347217
8.08902,477214
8.09527,642960
8.10153,764892
8.10778,872068
8.11403,1150283
8.12030,1485232
8.12655,1412353
8.13280,907782
8.13907,465315
8.14532,270067
8.15157,201046
8.15783,178076
8.16408,170130
8.17033,156543
8.17660,155768
8.18285,156197
8.18910,151946
8.19537,152374
8.20162,147132
8.20787,148745
8.21413,149565
8.22038,162092
8.22663,216699
8.23290,316641
8.23915,400742
8.24540,404877
8.25167,327498
8.25792,265621
8.26417,233346
8.27042,211714
8.27668,211469
8.28293,230537
8.28918,248012
8.29545,239520
8.30170,207440
8.30795,165286
8.31422,136313
8.32047,126613
8.32672,123300
8.33298,127637
8.33923,138905
8.34548,136593
8.35175,142429
8.35800,157212
8.36425,172890
8.37052,170265
8.37677,159569
8.38302,151254
8.38928,148773
8.39553,195472
8.40178,360119
8.40805,629810
8.41430,817976
8.42055,684872
8.42682,423184
8.43307,245494
8.43932,200918
8.44558,206775
8.45183,220196
8.45808,223322
8.46435,201997
8.47060,178630
8.47685,179064
8.48310,177437
8.48937,164633
8.49562,162741
8.50187,179487
8.50813,188108
8.51438,188106
8.52063,176612
8.52690,146517
8.53315,135332
8.53940,130342
8.54567,118381
8.55192,131332
8.55817,167206
8.56443,279964
8.57068,483260
8.57693,815151
8.58320,1368255
8.58945,1997555
8.59570,2245004
8.60197,1979982
8.60822,2099213
8.61447,4292913
8.62073,9318813
8.62698,1.516502E+07
8.63323,1.667243E+07
8.63950,1.234923E+07
8.64575,5221249
8.65200,1419414
8.65827,404829
8.66452,249169
8.67077,227974
8.67703,216799
8.68328,201684
8.68953,200421
8.69580,209079
8.70205,215382
8.70830,236862
8.71455,253371
8.72082,243915
8.72707,213855
8.73332,202652
8.73958,201421
8.74583,219783
8.75208,229447
8.75835,205559
8.76460,158178
8.77085,130550
8.77712,124454
8.78337,126947
8.78962,128013
8.79588,121745
8.80213,113055
8.80838,114194
8.81465,114491
8.82090,116608
8.82715,163919
8.83342,375198
8.83967,1075020
8.84592,2520462
8.85218,4897188
8.85843,7183163
8.86468,7816005
8.87095,6640666
8.87720,5733434
8.88345,5780614
8.88972,6113634
8.89597,5013237
8.90222,2326419
8.90848,857965
8.91473,394084
8.92098,248961
8.92723,192007
8.93350,171062
8.93975,162917
8.94600,166172
8.95227,193273
8.95852,236764
8.96477,300249
8.97103,342059
8.97728,361758
8.98353,383563
8.98980,429225
8.99605,567942
9.00230,810408
9.00857,1007963
9.01482,1019233
9.02107,807714
9.02733,575774
9.03358,592880
9.03983,870361
9.04610,1184343
9.05235,1134924
9.05860,772761
9.06487,426151
9.07112,266915
9.07737,214979
9.08363,195496
9.08988,206656
9.09613,228113
9.10240,225646
9.10865,208374
9.11490,185502
9.12117,162724
9.12742,144628
9.13367,157893
9.13992,173309
9.14618,184610
9.15243,220399
9.15868,271637
9.16495,326776
9.17120,357313
9.17745,356188
9.18372,388599
9.18997,479993
9.19622,523067
9.20248,459443
9.20873,307842
9.21498,210568
9.22125,168569
9.22750,158129
9.23375,180372
9.24002,235318
9.24627,301917
9.25252,320345
9.25878,263760
9.26503,192298
9.27128,145795
9.27755,128963
9.28380,133874
9.29005,157341
9.29632,229809
9.30257,313909
9.30882,384389
9.31508,430652
9.32133,462161
9.32758,467546
9.33385,507250
9.34010,720920
9.34635,1071413
9.35262,1328049
9.35887,1187431
9.36512,769572
9.37137,512780
9.37763,1027633
9.38388,3439240
9.39013,8758722
9.39640,1.445137E+07
9.40265,1.660778E+07
9.40890,1.288714E+07
9.41517,5959086
9.42142,1825223
9.42767,983524
9.43393,2369979
9.44018,7362440
9.44643,1.728887E+07
9.45270,2.848372E+07
9.45895,3.327525E+07
9.46520,2.859017E+07
9.47147,1.599398E+07
9.47772,5156055
9.48397,1316937
9.49023,485937
9.49648,296059
9.50273,236076
9.50900,222015
9.51525,232889
9.52150,250128
9.52777,265075
9.53402,256128
9.54027,249949
9.54653,231968
9.55278,212715
9.55903,201146
9.56530,193522
9.57155,220600
9.57780,242219
9.58407,253269
9.59032,247767
9.59657,241197
9.60282,243311
9.60908,278425
9.61533,315510
9.62158,313272
9.62785,249977
9.63410,193083
9.64035,168160
9.64662,168937
9.65287,175658
9.65912,172582
9.66538,159806
9.67163,208765
9.67788,591971
9.68415,2239203
9.69040,6318672
9.69665,1.18952E+07
9.70292,1.513397E+07
9.70917,1.3271E+07
9.71542,7401128
9.72168,2929321
9.72793,2327489
9.73418,3503427
9.74045,4496125
9.74670,3809868
9.75295,2099662
9.75922,882523
9.76547,372200
9.77172,248965
9.77798,225277
9.78423,199968
9.79048,183790
9.79675,168352
9.80300,161692
9.80925,149413
9.81550,147141
9.82177,140976
9.82802,139116
9.83427,152363
9.84053,184346
9.84678,260566
9.85303,631698
9.85930,2095235
9.86555,5729032
9.87180,1.113414E+07
9.87807,1.530419E+07
9.88432,1.428372E+07
9.89057,8682662
9.89683,3435651
9.90308,1797855
9.90933,1872181
9.91560,1890203
9.92185,1320490
9.92810,652420
9.93437,308989
9.94062,212193
9.94687,211308
9.95313,254908
9.95938,404250
9.96563,706578
9.97190,1183324
9.97815,1884107
9.98440,2872240
9.99067,4101848
9.99692,4687373
10.00317,3942614
10.00943,2308943
10.01568,1056580
10.02193,532513
10.02820,350310
10.03445,266538
10.04070,227572
10.04695,228050
10.05322,235123
10.05947,203335
10.06572,179221
10.07198,156101
10.07823,151725
10.08448,164073
10.09075,189173
10.09700,214696
10.10325,230314
10.10952,225486
10.11577,211737
10.12202,200652
10.12828,176814
10.13453,157971
10.14078,147061
10.14705,147209
10.15330,141392
10.15955,145929
10.16582,145574
10.17207,157672
10.17832,172749
10.18458,187110
10.19083,197190
10.19708,185468
10.20335,172250
10.20960,164907
10.21585,213681
10.22212,332605
10.22837,577122
10.23462,921382
10.24088,1196128
10.24713,1261363
10.25338,938158
10.25963,598689
10.26590,385077
10.27215,301637
10.27840,260633
10.28467,283127
10.29092,352304
10.29717,406317
10.30343,372759
10.30968,294001
10.31593,237520
10.32220,221899
10.32845,273523
10.33470,362733
10.34097,418964
10.34722,385498
10.35347,279846
10.35973,217986
10.36598,201275
10.37223,191344
10.37850,177247
10.38475,157121
10.39100,146555
10.39727,137479
10.40352,124314
10.40977,118998
10.41603,122800
10.42228,141157
10.42853,152102
10.43480,165160
10.44105,163579
10.44730,168493
10.45357,172865
10.45982,181620
10.46607,186955
10.47232,240886
10.47858,405864
10.48483,659638
10.49108,778913
10.49735,687859
10.50360,444136
10.50985,252669
10.51612,175589
10.52237,156962
10.52862,186932
10.53488,246834
10.54113,291826
10.54738,299431
10.55365,252837
10.55990,215697
10.56615,196630
10.57242,210610
10.57867,231423
10.58492,249269
10.59118,254716
10.59743,312411
10.60368,743221
10.60995,2327369
10.61620,5980545
10.62245,1.105614E+07
10.62872,1.427272E+07
10.63497,1.18048E+07
10.64122,6119032
10.64748,2159620
10.65373,645712
10.65998,268446
10.66625,220477
10.67250,212415
10.67875,228190
10.68502,225854
10.69127,205483
10.69752,173843
10.70377,158045
10.71003,157578
10.71628,170249
10.72253,185446
10.72880,189086
10.73505,197493
10.74130,196105
10.74757,188912
10.75382,183152
10.76007,177535
10.76633,187966
10.77258,201317
10.77883,202921
10.78510,203569
10.79135,200445
10.79760,198507
10.80387,213291
10.81012,282684
10.81637,400244
10.82263,495966
10.82888,443315
10.83513,309947
10.84140,218933
10.84765,180916
10.85390,186544
10.86017,195879
10.86642,200876
10.87267,201466
10.87893,192305
10.88518,187181
10.89143,192210
10.89770,203546
10.90395,217153
10.91020,214455
10.91645,202347
10.92272,198185
10.92897,211215
10.93522,208235
10.94148,191958
10.94773,175052
10.95398,168558
10.96025,271889
10.96650,751989
10.97275,2446539
10.97902,6530297
10.98527,1.294004E+07
10.99152,1.96688E+07
10.99778,2.205419E+07
11.00403,1.744388E+07
11.01028,7757050
11.01655,2119826
11.02280,533585
11.02905,274425
11.03532,275160
11.04157,302772
11.04782,323616
11.05408,362424
11.06033,396798
11.06658,395885
11.07285,317419
11.07910,240382
11.08535,181269
11.09162,177755
11.09787,192703
11.10412,218593
11.11038,238260
11.11663,247761
11.12288,261063
11.12913,271447
11.13540,270899
11.14165,273194
11.14790,273674
11.15417,324747
11.16042,490717
11.16667,706081
11.17293,787437
11.17918,644670
11.18543,429296
11.19170,262365
11.19795,196984
11.20420,206855
11.21047,261676
11.21672,316332
11.22297,327828
11.22923,307529
11.23548,260224
11.24173,239062
11.24800,255561
11.25425,273228
11.26050,279923
11.26677,263880
11.27302,268962
11.27927,291800
11.28553,310433
11.29178,281215
11.29803,233058
11.30430,205040
11.31055,213125
11.31680,307663
11.32307,500088
11.32932,741418
11.33557,799024
11.34183,646596
11.34808,390334
11.35433,221275
11.36058,164516
11.36685,156822
11.37310,157234
11.37935,152726
11.38562,138857
11.39187,140874
11.39812,139244
11.40438,146108
11.41063,151184
11.41688,149897
11.42315,157613
11.42940,188131
11.43565,277519
11.44192,489317
11.44817,799056
11.45442,1056388
11.46068,966955
11.46693,677319
11.47318,396216
11.47945,266078
11.48570,222453
11.49195,204475
11.49822,191313
11.50447,180971
11.51072,167454
11.51698,157546
11.52323,152767
11.52948,154702
11.53575,163484
11.54200,169268
11.54825,171168
11.55452,167174
11.56077,152464
11.56702,143763
11.57327,141889
11.57953,139302
11.58578,147072
11.59203,146246
11.59830,150095
11.60455,154545
11.61080,147868
11.61707,151447
11.62332,158999
11.62957,159047
11.63583,161761
11.64208,173937
11.64833,192182
11.65460,218172
11.66085,227216
11.66710,218523
11.67337,192306
11.67962,169349
11.68587,159980
11.69213,159525
11.69838,181370
11.70463,221098
11.71090,283418
11.71715,348163
11.72340,370655
11.72967,324327
11.73592,270930
11.74217,234891
11.74843,213029
11.75468,225538
11.76093,251990
11.76720,271678
11.77345,286335
11.77970,265273
11.78595,253789
11.79222,253104
11.79847,258795
11.80472,250373
11.81098,239904
11.81723,227001
11.82348,237786
11.82975,314622
11.83600,464848
11.84225,607583
11.84852,609403
11.85477,465688
11.86102,328643
11.86728,243587
11.87353,224139
11.87978,250530
11.88605,333255
11.89230,413933
11.89855,482430
11.90482,444275
11.91107,360102
11.91732,296507
11.92358,249610
11.92983,240115
11.93608,299113
11.94235,589362
11.94860,1359627
11.95485,2871857
11.96112,5050879
11.96737,7034794
11.97362,6551988
11.97988,3966999
11.98613,1784619
11.99238,766373
11.99865,584965
12.00490,615143
12.01115,588676
12.01740,513503
12.02367,448110
12.02992,442285
12.03617,524757
12.04243,745934
12.04868,1052033
12.05493,1298833
12.06120,1318391
12.06745,1068218
12.07370,722301
12.07997,522004
12.08622,468916
12.09247,454091
12.09873,460779
12.10498,422019
12.11123,360286
12.11750,303271
12.12375,258955
12.13000,248977
12.13627,245292
12.14252,227687
12.14877,214911
12.15503,208694
12.16128,205023
12.16753,207502
12.17380,219142
12.18005,241953
12.18630,295375
12.19257,398856
12.19882,595535
12.20507,967082
12.21133,1597247
12.21758,2395890
12.22383,3014116
12.23008,3050403
12.23635,2273997
12.24260,1353400
12.24885,953280
12.25512,1059682
12.26137,1535867
12.26762,2095531
12.27388,2426603
12.28013,2241075
12.28638,1575990
12.29265,877390
12.29890,461437
12.30515,286221
12.31142,232986
12.31767,206432
12.32392,186256
12.33018,191047
12.33643,218322
12.34268,262120
12.34895,316749
12.35520,369668
12.36145,394248
12.36772,369198
12.37397,340792
12.38022,348590
12.38648,412875
12.39273,471449
12.39898,433894
12.40525,341724
12.41150,288624
12.41775,254603
12.42402,264854
12.43027,299849
12.43652,339974
12.44278,350786
12.44903,317827
12.45528,272769
12.46153,271159
12.46780,291184
12.47405,376363
12.48030,570556
12.48657,881059
12.49282,1119419
12.49907,1180577
12.50533,963670
12.51158,617036
12.51783,344401
12.52410,233678
12.53035,216665
12.53660,254964
12.54287,286015
12.54912,316801
12.55537,303708
12.56163,288972
12.56788,341582
12.57413,578966
12.58040,1085262
12.58665,1841193
12.59290,2469882
12.59917,2428076
12.60542,2033536
12.61167,1953989
12.61793,2362159
12.62418,3566569
12.63043,5042589
12.63670,7013774
12.64295,9602711
12.64920,1.336474E+07
12.65547,1.866102E+07
12.66172,2.439569E+07
12.66797,2.924358E+07
12.67422,3.091653E+07
12.68048,3.086012E+07
12.68673,2.26165E+07
12.69298,8830816
12.69925,1926731
12.70550,713170
12.71175,686270
12.71802,868704
12.72427,1027388
12.73052,1017845
12.73678,969839
12.74303,956350
12.74928,868150
12.75555,732477
12.76180,611286
12.76805,518784
12.77432,459853
12.78057,420109
12.78682,425216
12.79308,436857
12.79933,422047
12.80558,392450
12.81185,369758
12.81810,345398
12.82435,393850
12.83062,448090
12.83687,434997
12.84312,405383
12.84938,353229
12.85563,347256
12.86188,348122
12.86815,334060
12.87440,336113
12.88065,389114
12.88692,533599
12.89317,796357
12.89942,1049251
12.90567,1091465
12.91193,991112
12.91818,792440
12.92443,626884
12.93070,478895
12.93695,338106
12.94320,273525
12.94947,259333
12.95572,251361
12.96197,234400
12.96823,229897
12.97448,219634
12.98073,240333
12.98700,260340
12.99325,281117
12.99950,314688
13.00577,341428
13.01202,362842
13.01827,408839
13.02453,509822
13.03078,683847
13.03703,817152
13.04330,798006
13.04955,623172
13.05580,437521
13.06207,430669
13.06832,704443
13.07457,1423104
13.08083,2583390
13.08708,3659965
13.09333,3688122
13.09960,2569142
13.10585,1439069
13.11210,803185
13.11835,538470
13.12462,426235
13.13087,377218
13.13712,360692
13.14338,369265
13.14963,368242
13.15588,349975
13.16215,337849
13.16840,322275
13.17465,284008
13.18092,254896
13.18717,240241
13.19342,228151
13.19968,225686
13.20593,227083
13.21218,236767
13.21845,265967
13.22470,290459
13.23095,318273
13.23722,344739
13.24347,352389
13.24972,342347
13.25598,336172
13.26223,354017
13.26848,360183
13.27475,353038
13.28100,342932
13.28725,405160
13.29352,571478
13.29977,867438
13.30602,1329452
13.31228,1710575
13.31853,1693861
13.32478,1161198
13.33105,633653
13.33730,383774
13.34355,316172
13.34980,326955
13.35607,349848
13.36232,321061
13.36857,303889
13.37483,297431
13.38108,281328
13.38733,256939
13.39360,247741
13.39985,246141
13.40610,237909
13.41237,252257
13.41862,269090
13.42487,294932
13.43113,339022
13.43738,398314
13.44363,432509
13.44990,411344
13.45615,362275
13.46240,318581
13.46867,298666
13.47492,292543
13.48117,293227
13.48743,294173
13.49368,295927
13.49993,298242
13.50620,304273
13.51245,308343
13.51870,328717
13.52497,339608
13.53122,351967
13.53747,407827
13.54373,497357
13.54998,704845
13.55623,908966
13.56248,970126
13.56875,782157
13.57500,582095
13.58125,477635
13.58752,530249
13.59377,706626
13.60002,940832
13.60628,1105020
13.61253,1075200
13.61878,877338
13.62505,667739
13.63130,535610
13.63755,478696
13.64382,419375
13.65007,391104
13.65632,390626
13.66258,391310
13.66883,373732
13.67508,381138
13.68135,386346
13.68760,419771
13.69385,450283
13.70012,442054
13.70637,413992
13.71262,377964
13.71888,354669
13.72513,350868
13.73138,348021
13.73765,353867
13.74390,371251
13.75015,437339
13.75642,628524
13.76267,943363
13.76892,1234210
13.77517,1197037
13.78143,1001102
13.78768,712466
13.79393,708747
13.80020,1200085
13.80645,2426949
13.81270,4711241
13.81897,8125312
13.82522,1.285692E+07
13.83147,1.883635E+07
13.83773,2.518768E+07
13.84398,2.994126E+07
13.85023,2.601674E+07
13.85650,1.262395E+07
13.86275,3130254
13.86900,692167
13.87527,386455
13.88152,490771
13.88777,869006
13.89403,1686708
13.90028,3366377
13.90653,6107714
13.91280,8791307
13.91905,1.021715E+07
13.92530,8946337
13.93157,4908945
13.93782,1786079
13.94407,542114
13.95033,263838
13.95658,219540
13.96283,225557
13.96910,225293
13.97535,216921
13.98160,223448
13.98787,225329
13.99412,246023
14.00037,259184
14.00662,293410
14.01288,337933
14.01913,354557
14.02538,303534
14.03165,238109
14.03790,199922
14.04415,185370
14.05042,198952
14.05667,216431
14.06292,243986
14.06918,274761
14.07543,292253
14.08168,281473
14.08795,251174
14.09420,209817
14.10045,191513
14.10672,177314
14.11297,172966
14.11922,184742
14.12548,191337
14.13173,200438
14.13798,187227
14.14425,178180
14.15050,172812
14.15675,178480
14.16302,184494
14.16927,172860
14.17552,168134
14.18178,164595
14.18803,170923
14.19428,192015
14.20055,255419
14.20680,377791
14.21305,656408
14.21930,1118970
14.22557,1763558
14.23182,2088699
14.23807,1858761
14.24433,1182085
14.25058,615536
14.25683,338868
14.26310,334564
14.26935,481708
14.27560,695102
14.28187,761031
14.28812,637836
14.29437,448879
14.30063,322496
14.30688,269671
14.31313,303715
14.31940,428363
14.32565,607734
14.33190,663003
14.33817,569673
14.34442,411600
14.35067,286389
14.35693,237011
14.36318,223829
14.36943,221946
14.37570,222854
14.38195,236700
14.38820,263810
14.39447,326273
14.40072,525732
14.40697,1152214
14.41323,2577767
14.41948,4671578
14.42573,6457897
14.43198,6286004
14.43825,4074748
14.44450,2201610
14.45075,1347524
14.45702,1037526
14.46327,923354
14.46952,925808
14.47578,984038
14.48203,1024725
14.48828,902677
14.49455,664147
14.50080,471396
14.50705,326559
14.51332,290220
14.51957,309942
14.52582,353288
14.53208,367358
14.53833,337358
14.54458,290082
14.55085,263711
14.55710,256995
14.56335,258102
14.56962,264410
14.57587,267657
14.58212,255502
14.58838,230764
14.59463,214778
14.60088,215901
14.60715,225608
14.61340,232464
14.61965,234457
14.62592,241166
14.63217,271131
14.63842,366498
14.64468,480603
14.65093,572955
14.65718,547949
14.66343,457593
14.66970,364403
14.67595,316005
14.68220,326598
14.68847,405328
14.69472,524127
14.70097,662856
14.70723,714148
14.71348,680371
14.71973,723969
14.72600,985014
14.73225,1486148
14.73850,2197211
14.74477,2598312
14.75102,2530387
14.75727,2522487
14.76353,2399347
14.76978,1945384
14.77603,1176332
14.78230,598957
14.78855,329510
14.79480,309706
14.80107,353621
14.80732,488913
14.81357,546493
14.81983,502146
14.82608,375038
14.83233,273949
14.83860,215943
14.84485,196516
14.85110,223891
14.85737,270498
14.86362,352598
14.86987,379531
14.87612,370237
14.88238,309563
14.88863,264734
14.89488,254021
14.90115,280792
14.90740,407708
14.91365,626886
14.91992,825025
14.92617,883676
14.93242,800541
14.93868,636134
14.94493,493567
14.95118,430411
14.95745,525095
14.96370,858506
14.96995,1639557
14.97622,2611477
14.98247,3360561
14.98872,2949521
14.99498,1767394
15.00123,850419
15.00748,444990
15.01375,307786
15.02000,268549
15.02625,254669
15.03252,255221
15.03877,267730
15.04502,296378
15.05128,324207
15.05753,339689
15.06378,333509
15.07005,320228
15.07630,311759
15.08255,303380
15.08882,327254
15.09507,377333
15.10132,427009
15.10757,470910
15.11383,498591
15.12008,587399
15.12633,706379
15.13260,826517
15.13885,981905
15.14510,1116575
15.15137,1235258
15.15762,1548518
15.16387,2490414
15.17013,4061274
15.17638,5536915
15.18263,5150609
15.18890,3275997
15.19515,1556715
15.20140,731577
15.20767,438234
15.21392,311153
15.22017,250461
15.22643,215847
15.23268,210276
15.23893,213001
15.24520,231434
15.25145,245765
15.25770,258910
15.26397,264931
15.27022,254544
15.27647,238257
15.28273,221218
15.28898,211466
15.29523,215448
15.30150,217365
15.30775,226795
15.31400,266990
15.32025,321682
15.32652,354614
15.33277,359049
15.33902,304253
15.34528,245969
15.35153,214825
15.35778,222278
15.36405,239983
15.37030,238162
15.37655,232482
15.38282,216286
15.38907,211524
15.39532,195482
15.40158,190069
15.40783,181051
15.41408,187556
15.42035,225406
15.42660,300513
15.43285,418194
15.43912,578517
15.44537,762744
15.45162,1020855
15.45788,1114504
15.46413,945954
15.47038,634187
15.47665,395021
15.48290,264971
15.48915,221774
15.49542,232644
15.50167,268596
15.50792,358665
15.51418,619241
15.52043,1344820
15.52668,2849272
15.53293,4883607
15.53920,6916266
15.54545,9100262
15.55170,1.239845E+07
15.55797,1.489705E+07
15.56422,1.311194E+07
15.57047,6854245
15.57673,2113512
15.58298,698381
15.58923,433141
15.59550,388549
15.60175,390420
15.60800,414847
15.61427,402273
15.62052,379411
15.62677,362977
15.63303,356468
15.63928,346186
15.64553,316964
15.65180,278176
15.65805,245983
15.66430,251708
15.67057,242712
15.67682,260519
15.68307,279686
15.68933,285970
15.69558,300358
15.70183,293103
15.70810,276531
15.71435,257080
15.72060,231449
15.72687,228210
15.73312,233250
15.73937,246260
15.74563,265347
15.75188,268175
15.75813,252238
15.76438,227062
15.77065,202798
15.77690,179003
15.78315,168825
15.78942,179630
15.79567,188738
15.80192,191283
15.80818,187967
15.81443,194233
15.82068,208026
15.82695,257134
15.83320,374405
15.83945,583064
15.84572,824404
15.85197,920213
15.85822,747998
15.86448,474481
15.87073,294851
15.87698,238163
15.88325,230741
15.88950,227591
15.89575,225546
15.90202,210287
15.90827,194103
15.91452,183496
15.92078,193358
15.92703,193386
15.93328,194906
15.93955,232018
15.94580,299897
15.95205,496301
15.95832,884060
15.96457,1327188
15.97082,1503774
15.97708,1288320
15.98333,791816
15.98958,415318
15.99583,237466
16.00210,193586
16.00835,231898
16.01460,313718
16.02087,423742
16.02712,531977
16.03337,622506
16.03963,758166
16.04588,962061
16.05213,1179113
16.05840,1210935
16.06465,935590
16.07090,740852
16.07717,768875
16.08342,1001751
16.08967,1208117
16.09593,1195809
16.10218,1074273
16.10843,1090360
16.11470,1557858
16.12095,2532647
16.12720,3464039
16.13347,3574234
16.13972,2321412
16.14597,1204124
16.15223,572703
16.15848,353817
16.16473,316869
16.17100,311551
16.17725,304684
16.18350,313225
16.18977,354689
16.19602,428174
16.20227,431918
16.20852,381533
16.21478,331837
16.22103,352372
16.22728,570051
16.23355,977295
16.23980,1183457
16.24605,1066973
16.25232,726026
16.25857,431946
16.26482,301776
16.27108,262362
16.27733,243747
16.28358,234133
16.28985,247866
16.29610,304316
16.30235,443911
16.30862,585559
16.31487,640967
16.32112,500386
16.32738,357597
16.33363,269609
16.33988,230629
16.34615,224554
16.35240,219300
16.35865,211192
16.36492,205124
16.37117,203694
16.37742,197055
16.38368,185020
16.38993,184066
16.39618,182197
16.40245,192693
16.40870,192643
16.41495,195081
16.42120,205391
16.42747,249921
16.43372,390263
16.43997,657381
16.44623,969263
16.45248,1136433
16.45873,1033668
16.46500,801875
16.47125,610443
16.47750,495878
16.48377,410050
16.49002,342610
16.49627,311328
16.50253,311118
16.50878,351948
16.51503,458453
16.52130,575299
16.52755,622040
16.53380,595733
16.54007,516069
16.54632,449305
16.55257,405449
16.55883,357680
16.56508,330827
16.57133,301437
16.57760,300788
16.58385,296642
16.59010,314059
16.59637,318824
16.60262,303219
16.60887,299372
16.61513,314770
16.62138,337705
16.62763,356650
16.63390,384256
16.64015,413174
16.64640,442000
16.65265,460009
16.65892,418647
16.66517,370648
16.67142,341686
16.67768,329500
16.68393,366998
16.69018,374396
16.69645,348837
16.70270,306950
16.70895,274197
16.71522,261295
16.72147,262273
16.72772,270726
16.73398,294275
16.74023,317925
16.74648,379343
16.75275,564939
16.75900,935033
16.76525,1756426
16.77152,3409056
16.77777,5916551
16.78402,8341836
16.79028,8043407
16.79653,6287905
16.80278,4578267
16.80905,3883819
16.81530,4019827
16.82155,5043350
16.82782,6946451
16.83407,1.022164E+07
16.84032,1.305808E+07
16.84658,1.38645E+07
16.85283,1.284883E+07
16.85908,9085240
16.86533,5507304
16.87160,4196126
16.87785,4458574
16.88410,5928855
16.89037,7565733
16.89662,7794420
16.90287,6810393
16.90913,5322611
16.91538,3729189
16.92163,3102457
16.92790,3507221
16.93415,3888423
16.94040,4182476
16.94667,4326918
16.95292,4377991
16.95917,4849303
16.96543,4347692
16.97168,3371402
16.97793,2293980
16.98420,1494106
16.99045,1095158
16.99670,1001465
17.00297,1356633
17.00922,2588363
17.01547,5658033
17.02173,1.051617E+07
17.02798,1.711167E+07
17.03423,2.458834E+07
17.04050,3.154102E+07
17.04675,3.924665E+07
17.05300,4.641859E+07
17.05927,5.204572E+07
17.06552,5.30827E+07
17.07177,5.080766E+07
17.07802,4.672046E+07
17.08428,4.374982E+07
17.09053,4.039066E+07
17.09678,3.948948E+07
17.10305,3.745078E+07
17.10930,4.44433E+07
17.11555,3.345641E+07
17.12182,1.210065E+07
17.12807,1.16233E+07
17.13432,1.081555E+07
17.14058,9087000
17.14683,8429504
17.15308,1.202144E+07
17.15935,2.045936E+07
17.16560,3.366312E+07
17.17185,4.45513E+07
17.17812,5.037815E+07
17.18437,5.069843E+07
17.19062,3.933789E+07
17.19688,1.370675E+07
17.20313,3785727
17.20938,3235693
17.21565,4011458
17.22190,5137071
17.22815,6953459
17.23442,1.079821E+07
17.24067,2.037877E+07
17.24692,3.319525E+07
17.25318,4.517828E+07
17.25943,5.122624E+07
17.26568,5.11629E+07
17.27195,4.316473E+07
17.27820,2.005911E+07
17.28445,8206835
17.29072,9477534
17.29697,1.386019E+07
17.30322,1.674405E+07
17.30947,1.517946E+07
17.31573,9119688
17.32198,4084198
17.32823,1920319
17.33450,1199075
17.34075,972737
17.34700,895035
17.35327,801115
17.35952,757250
17.36577,708634
17.37203,676869
17.37828,690690
17.38453,698485
17.39080,753679
17.39705,851798
17.40330,1039023
17.40957,1289794
17.41582,1570187
17.42207,1599434
17.42833,1513812
17.43458,1442369
17.44083,1730330
17.44710,2528445
17.45335,3789885
17.45960,4449207
17.46587,4099848
17.47212,2748774
17.47837,1592347
17.48463,1026278
17.49088,895494
17.49713,867379
17.50340,891595
17.50965,1121191
17.51590,1531996
17.52215,1933454
17.52842,2014210
17.53467,1666958
17.54092,1166885
17.54718,842280
17.55343,859109
17.55968,1295035
17.56595,2543697
17.57220,5384937
17.57845,9511537
17.58472,1.285594E+07
17.59097,1.181566E+07
17.59722,7463458
17.60348,3504833
17.60973,1469389
17.61598,1054971
17.62225,1166935
17.62850,1218655
17.63475,1129270
17.64102,839850
17.64727,635665
17.65352,523792
17.65978,477786
17.66603,458030
17.67228,441015
17.67855,454562
17.68480,478707
17.69105,506915
17.69732,539886
17.70357,557944
17.70982,535511
17.71608,489686
17.72233,436348
17.72858,420826
17.73483,414042
17.74110,458077
17.74735,491014
17.75360,522963
17.75987,548355
17.76612,598889
17.77237,727555
17.77863,971509
17.78488,1302453
17.79113,1847863
17.79740,3135841
17.80365,5450267
17.80990,8027198
17.81617,9692964
17.82242,8670540
17.82867,6133280
17.83493,3325598
17.84118,1774768
17.84743,1228657
17.85370,1171525
17.85995,2043936
17.86620,4696490
17.87247,9414110
17.87872,1.475644E+07
17.88497,1.686408E+07
17.89123,1.224848E+07
17.89748,5970582
17.90373,2127987
17.91000,878087
17.91625,603326
17.92250,519080
17.92877,488597
17.93502,475315
17.94127,445360
17.94753,443592
17.95378,458253
17.96003,481603
17.96628,491575
17.97255,500035
17.97880,512094
17.98505,532134
17.99132,648953
17.99757,809596
18.00382,998358
18.01008,1117068
18.01633,1093991
18.02258,905231
18.02885,692540
18.03510,556659
18.04135,488717
18.04762,446439
18.05387,408688
18.06012,379003
18.06638,371812
18.07263,353463
18.07888,344928
18.08515,378777
18.09140,435580
18.09765,476931
18.10392,496092
18.11017,461314
18.11642,482587
18.12268,634549
18.12893,1190517
18.13518,2483721
18.14145,4303433
18.14770,5220993
18.15395,4436166
18.16022,2697092
18.16647,1201105
18.17272,624225
18.17897,456687
18.18523,393479
18.19148,359854
18.19773,348587
18.20400,368723
18.21025,431636
18.21650,505481
18.22277,543707
18.22902,494957
18.23527,411007
18.24153,358339
18.24778,339203
18.25403,341373
18.26030,363405
18.26655,416091
18.27280,482924
18.27907,578276
18.28532,752037
18.29157,1173830
18.29783,1791993
18.30408,2140303
18.31033,1919172
18.31660,1318930
18.32285,778152
18.32910,492961
18.33537,344613
18.34162,299119
18.34787,290833
18.35413,303586
18.36038,306556
18.36663,318987
18.37290,313014
18.37915,347481
18.38540,422856
18.39167,492252
18.39792,505738
18.40417,473197
18.41042,438170
18.41668,413275
18.42293,393282
18.42918,354303
18.43545,310488
18.44170,290607
18.44795,283293
18.45422,278429
18.46047,265117
18.46672,263591
18.47298,261154
18.47923,256761
18.48548,251714
18.49175,245318
18.49800,247602
18.50425,243229
18.51052,260607
18.51677,262840
18.52302,264063
18.52928,267728
18.53553,274236
18.54178,296705
18.54805,315173
18.55430,329543
18.56055,337145
18.56682,306124
18.57307,292096
18.57932,275801
18.58558,260611
18.59183,261599
18.59808,274156
18.60435,299933
18.61060,337275
18.61685,370214
18.62310,363025
18.62937,322894
18.63562,310099
18.64187,305116
18.64813,307152
18.65438,289748
18.66063,281095
18.66690,277013
18.67315,286207
18.67940,288297
18.68567,274403
18.69192,257411
18.69817,269381
18.70443,313203
18.71068,352326
18.71693,369095
18.72320,350494
18.72945,301684
18.73570,266390
18.74197,250525
18.74822,253783
18.75447,257700
18.76073,248561
18.76698,244423
18.77323,238418
18.77950,240382
18.78575,232815
18.79200,220755
18.79827,229818
18.80452,243895
18.81077,260750
18.81703,267508
18.82328,266130
18.82953,254262
18.83580,252649
18.84205,240521
18.84830,242810
18.85455,251666
18.86082,297987
18.86707,432190
18.87332,825401
18.87958,2021315
18.88583,4903713
18.89208,9026015
18.89835,1.200045E+07
18.90460,1.13599E+07
18.91085,8200227
18.91712,3869319
18.92337,1506974
18.92962,901539
18.93588,1032148
18.94213,1198444
18.94838,1178862
18.95465,890244
18.96090,586832
18.96715,361086
18.97342,267489
18.97967,229388
18.98592,228490
18.99218,236516
18.99843,249147
19.00468,265939
19.01095,280668
19.01720,288222
19.02345,274933
19.02972,260755
19.03597,259258
19.04222,276111
19.04848,281571
19.05473,279772
19.06098,255533
19.06723,245642
19.07350,258581
19.07975,284005
19.08600,307297
19.09227,323719
19.09852,315931
19.10477,303736
19.11103,296738
19.11728,285556
19.12353,271856
19.12980,287206
19.13605,291953
19.14230,298071
19.14857,288490
19.15482,273414
19.16107,270225
19.16733,245890
19.17358,231666
19.17983,217778
19.18610,226886
19.19235,231428
19.19860,233543
19.20487,230770
19.21112,228524
19.21737,221570
19.22363,212903
19.22988,209030
19.23613,201031
19.24240,207908
19.24865,202468
19.25490,203034
19.26117,192087
19.26742,190354
19.27367,195528
19.27993,203262
19.28618,222028
19.29243,222770
19.29868,224681
19.30495,214333
19.31120,198727
19.31745,194481
19.32372,187603
19.32997,189571
19.33622,207519
19.34248,234631
19.34873,247762
19.35498,268386
19.36125,268675
19.36750,256707
19.37375,248878
19.38002,244377
19.38627,256685
19.39252,265368
19.39878,282957
19.40503,296539
19.41128,296364
19.41755,283098
19.42380,259718
19.43005,241383
19.43632,228497
19.44257,229648
19.44882,237414
19.45508,230008
19.46133,218566
19.46758,208072
19.47385,205073
19.48010,206966
19.48635,217112
19.49262,231398
19.49887,249267
19.50512,268038
19.51137,293183
19.51763,299796
19.52388,301124
19.53013,277823
19.53640,277295
19.54265,315493
19.54890,375358
19.55517,428029
19.56142,387993
19.56767,325164
19.57393,267980
19.58018,232374
19.58643,208156
19.59270,200729
19.59895,202884
19.60520,196326
19.61147,192806
19.61772,193466
19.62397,216880
19.63023,264135
19.63648,303184
19.64273,327953
19.64900,299518
19.65525,265777
19.66150,253910
19.66777,276919
19.67402,335257
19.68027,378914
19.68653,378338
19.69278,344484
19.69903,316671
19.70530,301308
19.71155,299214
19.71780,299522
19.72405,269611
19.73032,268087
19.73657,271141
19.74282,270407
19.74908,263713
19.75533,256570
19.76158,267749
19.76785,289239
19.77410,301914
19.78035,293746
19.78662,268533
19.79287,271083
19.79912,275386
19.80538,270565
19.81163,253673
19.81788,235786
19.82415,209283
19.83040,199930
19.83665,192480
19.84292,202898
19.84917,215847
19.85542,270064
19.86168,343059
19.86793,397946
19.87418,427784
19.88045,366083
19.88670,301377
19.89295,271764
19.89922,343997
19.90547,654937
19.91172,1657591
19.91798,3693849
19.92423,5848287
19.93048,6464749
19.93675,5028545
19.94300,2566271
19.94925,995672
19.95550,470477
19.96177,384213
19.96802,437274
19.97427,530240
19.98053,608380
19.98678,594484
19.99303,534120
19.99930,405905
20.00555,319832
20.01180,271530
20.01807,243192
20.02432,233603
20.03057,235495
20.03683,255906
20.04308,302563
20.04933,329663
20.05560,322346
20.06185,295947
20.06810,263523
20.07437,232484
20.08062,226229
20.08687,262970
20.09313,296220
20.09938,315760
20.10563,298615
20.11190,274519
20.11815,240434
20.12440,220905
20.13067,217807
20.13692,220496
20.14317,225293
20.14943,226550
20.15568,227624
20.16193,228965
20.16818,234095
20.17445,227014
20.18070,226983
20.18695,223801
20.19322,246409
20.19947,256688
20.20572,296453
20.21198,362974
20.21823,491315
20.22448,720645
20.23075,992538
20.23700,1125073
20.24325,1017737
20.24952,772621
20.25577,481887
20.26202,352553
20.26828,280765
20.27453,268505
20.28078,298418
20.28705,436374
20.29330,797191
20.29955,1360859
20.30582,1798191
20.31207,1694362
20.31832,1293653
20.32458,803743
20.33083,469010
20.33708,379885
20.34335,369502
20.34960,399515
20.35585,384376
20.36212,341897
20.36837,308815
20.37462,294964
20.38087,287611
20.38713,282203
20.39338,272101
20.39963,269300
20.40590,278088
20.41215,316739
20.41840,435736
20.42467,736806
20.43092,1306208
20.43717,2161616
20.44343,2865694
20.44968,2866098
20.45593,2055790
20.46220,1206855
20.46845,772869
20.47470,753648
20.48097,965283
20.48722,1096706
20.49347,1011106
20.49973,791260
20.50598,550381
20.51223,427651
20.51850,421397
20.52475,415476
20.53100,393196
20.53727,417748
20.54352,487046
20.54977,655148
20.55603,752751
20.56228,719399
20.56853,572298
20.57480,446431
20.58105,394871
20.58730,431522
20.59357,478306
20.59982,484876
20.60607,439522
20.61232,359866
20.61858,310430
20.62483,267867
20.63108,252427
20.63735,240681
20.64360,256279
20.64985,298174
20.65612,304028
20.66237,321626
20.66862,319456
20.67488,305037
20.68113,279812
20.68738,269946
20.69365,266153
20.69990,292717
20.70615,441007
20.71242,780676
20.71867,1224380
20.72492,1644532
20.73118,1668118
20.73743,1290055
20.74368,817589
20.74995,607540
20.75620,655577
20.76245,927321
20.76872,1224129
20.77497,1351394
20.78122,1168533
20.78748,858440
20.79373,620429
20.79998,465022
20.80625,382290
20.81250,326685
20.81875,294684
20.82500,280818
20.83127,296663
20.83752,304182
20.84377,325507
20.85003,328628
20.85628,335515
20.86253,333221
20.86880,315822
20.87505,287818
20.88130,287618
20.88757,291409
20.89382,301912
20.90007,321740
20.90633,333112
20.91258,324290
20.91883,322104
20.92510,391161
20.93135,567111
20.93760,996391
20.94387,1501984
20.95012,1864019
20.95637,1701439
20.96263,1287443
20.96888,935015
20.97513,722169
20.98140,575058
20.98765,432478
20.99390,368492
21.00017,405190
21.00642,447669
21.01267,520769
21.01893,583130
21.02518,504818
21.03143,424910
21.03768,391415
21.04395,384810
21.05020,372977
21.05645,367748
21.06272,359729
21.06897,389768
21.07522,427518
21.08148,485695
21.08773,475959
21.09398,412127
21.10025,334465
21.10650,286101
21.11275,258187
21.11902,262708
21.12527,265208
21.13152,290243
21.13778,279145
21.14403,276420
21.15028,277767
21.15655,265026
21.16280,268548
21.16905,251913
21.17532,259352
21.18157,272706
21.18782,287041
21.19408,282923
21.20033,287302
21.20658,280119
21.21285,274432
21.21910,277586
21.22535,300703
21.23162,288850
21.23787,312383
21.24412,342584
21.25038,351089
21.25663,319743
21.26288,294064
21.26913,318450
21.27540,386076
21.28165,471553
21.28790,531313
21.29417,502315
21.30042,413349
21.30667,342731
21.31293,302236
21.31918,303377
21.32543,305562
21.33170,317826
21.33795,305638
21.34420,293854
21.35047,316724
21.35672,395024
21.36297,486738
21.36923,591345
21.37548,607470
21.38173,531482
21.38800,410918
21.39425,318600
21.40050,288661
21.40677,333241
21.41302,466296
21.41927,714113
21.42553,982706
21.43178,1073311
21.43803,939971
21.44430,774785
21.45055,657696
21.45680,720939
21.46307,895742
21.46932,902554
21.47557,724856
21.48182,560056
21.48808,432886
21.49433,401425
21.50058,399870
21.50685,378041
21.51310,361948
21.51935,319240
21.52562,274728
21.53187,261686
21.53812,259071
21.54438,261143
21.55063,249637
21.55688,247450
21.56315,271326
21.56940,291056
21.57565,317050
21.58192,316182
21.58817,323518
21.59442,334277
21.60068,339520
21.60693,308861
21.61318,275275
21.61945,246534
21.62570,212889
21.63195,197710
21.63822,206735
21.64447,203377
21.65072,204171
21.65698,204006
21.66323,218987
21.66948,238431
21.67575,268764
21.68200,294032
21.68825,300040
21.69452,275233
21.70077,243246
21.70702,222205
21.71327,212235
21.71953,200250
21.72578,206574
21.73203,217987
21.73830,218935
21.74455,224339
21.75080,244863
21.75707,255684
21.76332,245898
21.76957,235444
21.77583,236677
21.78208,261047
21.78833,292405
21.79460,312463
21.80085,342964
21.80710,368439
21.81337,365942
21.81962,357811
21.82587,333285
21.83213,290951
21.83838,267037
21.84463,265462
21.85090,267467
21.85715,313589
21.86340,342783
21.86967,385632
21.87592,377857
21.88217,304317
21.88843,251792
21.89468,222540
21.90093,235681
21.90720,236637
21.91345,238286
21.91970,229460
21.92595,211034
21.93222,204197
21.93847,196681
21.94472,197391
21.95098,198958
21.95723,197678
21.96348,201573
21.96975,233127
21.97600,273093
21.98225,308994
21.98852,311577
21.99477,284973
22.00102,271049
22.00728,253536
22.01353,255902
22.01978,251145
22.02605,255825
22.03230,261133
22.03855,281796
22.04482,298493
22.05107,302427
22.05732,336388
22.06358,356014
22.06983,344582
22.07608,310756
22.08235,280427
22.08860,266524
22.09485,250904
22.10112,252508
22.10737,258548
22.11362,255388
22.11988,261981
22.12613,279010
22.13238,300911
22.13865,272714
22.14490,248512
22.15115,237097
22.15740,238411
22.16367,253140
22.16992,270307
22.17617,273204
22.18243,280711
22.18868,292526
22.19493,278099
22.20120,254688
22.20745,244995
22.21370,233528
22.21997,240963
22.22622,247625
22.23247,271558
22.23873,311611
22.24498,402018
22.25123,560340
22.25750,710276
22.26375,740550
22.27000,674986
22.27627,550364
22.28252,421237
22.28877,371127
22.29503,337894
22.30128,322360
22.30753,302716
22.31380,286693
22.32005,279822
22.32630,272176
22.33257,276447
22.33882,266378
22.34507,287201
22.35133,372513
22.35758,533477
22.36383,789646
22.37008,881237
22.37635,740816
22.38260,544781
22.38885,384655
22.39512,310113
22.40137,289466
22.40762,289154
22.41388,306500
22.42013,306943
22.42638,333188
22.43265,382734
22.43890,478672
22.44515,622775
22.45142,889204
22.45767,1210098
22.46392,1349042
22.47018,1173215
22.47643,882100
22.48268,586334
22.48895,456323
22.49520,408768
22.50145,376370
22.50772,339425
22.51397,315869
22.52022,306292
22.52648,372676
22.53273,545720
22.53898,910874
22.54525,1336859
22.55150,1601253
22.55775,1506879
22.56402,1166115
22.57027,797191
22.57652,539289
22.58277,407948
22.58903,340962
22.59528,323379
22.60153,303179
22.60780,295305
22.61405,294420
22.62030,296973
22.62657,291369
22.63282,281402
22.63907,287832
22.64533,292881
22.65158,288772
22.65783,281973
22.66410,295028
22.67035,336537
22.67660,393137
22.68287,457731
22.68912,474896
22.69537,424853
22.70163,353333
22.70788,302833
22.71413,276810
22.72040,264307
22.72665,266534
22.73290,268883
22.73917,280553
22.74542,278331
22.75167,299164
22.75793,299299
22.76418,320271
22.77043,347035
22.77670,451932
22.78295,918595
22.78920,2679023
22.79547,6394609
22.80172,1.205917E+07
22.80797,1.753109E+07
22.81422,2.015418E+07
22.82048,1.688197E+07
22.82673,8627311
22.83298,3276952
22.83925,1227231
22.84550,639825
22.85175,484184
22.85802,428089
22.86427,408578
22.87052,381863
22.87678,364844
22.88303,327397
22.88928,311397
22.89555,306926
22.90180,314836
22.90805,320647
22.91432,318577
22.92057,324861
22.92682,326369
22.93308,349689
22.93933,367593
22.94558,349530
22.95185,341592
22.95810,329800
22.96435,327014
22.97062,355659
22.97687,404640
22.98312,470838
22.98938,491428
22.99563,434671
23.00188,379088
23.00815,314075
23.01440,276419
23.02065,275246
23.02690,260784
23.03317,265246
23.03942,280687
23.04567,292505
23.05193,311127
23.05818,411737
23.06443,653171
23.07070,1057018
23.07695,1291549
23.08320,1345641
23.08947,1092944
23.09572,829802
23.10197,506871
23.10823,357314
23.11448,291748
23.12073,266446
23.12700,251468
23.13325,249667
23.13950,277233
23.14577,287827
23.15202,273463
23.15827,269249
23.16453,243737
23.17078,237758
23.17703,258156
23.18330,285104
23.18955,293162
23.19580,303228
23.20207,297355
23.20832,295333
23.21457,287885
23.22083,283161
23.22708,280561
23.23333,272796
23.23958,273786
23.24585,282414
23.25210,287079
23.25835,290906
23.26462,282481
23.27087,286387
23.27712,275709
23.28338,288231
23.28963,314003
23.29588,355580
23.30215,463029
23.30840,635971
23.31465,775353
23.32092,822239
23.32717,724548
23.33342,538069
23.33968,407114
23.34593,338917
23.35218,315363
23.35845,299780
23.36470,290450
23.37095,290200
23.37722,298870
23.38347,309690
23.38972,316239
23.39598,318245
23.40223,300252
23.40848,298486
23.41475,295377
23.42100,281214
23.42725,279425
23.43352,291788
23.43977,308878
23.44602,342111
23.45228,363238
23.45853,388217
23.46478,409469
23.47103,429818
23.47730,473570
23.48355,528880
23.48980,544797
23.49607,602762
23.50232,694998
23.50857,854639
23.51483,1038816
23.52108,1103685
23.52733,909735
23.53360,679488
23.53985,474281
23.54610,418988
23.55237,389932
23.55862,422772
23.56487,492540
23.57113,624390
23.57738,795798
23.58363,960720
23.58990,1139380
23.59615,1352127
23.60240,1330201
23.60867,1213526
23.61492,938723
23.62117,665164
23.62743,505059
23.63368,424063
23.63993,399909
23.64620,380216
23.65245,348273
23.65870,322876
23.66497,298189
23.67122,295639
23.67747,312577
23.68372,328569
23.68998,337549
23.69623,342428
23.70248,353275
23.70875,395615
23.71500,526608
23.72125,784311
23.72752,962388
23.73377,1050277
23.74002,902958
23.74628,669796
23.75253,489737
23.75878,387203
23.76505,341892
23.77130,327614
23.77755,342168
23.78382,347954
23.79007,343822
23.79632,344005
23.80258,350968
23.80883,373803
23.81508,408770
23.82135,425019
23.82760,408235
23.83385,386839
23.84012,368112
23.84637,352039
23.85262,348533
23.85888,365691
23.86513,371054
23.87138,382687
23.87765,437478
23.88390,515106
23.89015,603671
23.89640,603927
23.90267,571844
23.90892,502019
23.91517,439105
23.92143,414914
23.92768,403514
23.93393,399347
23.94020,404709
23.94645,474775
23.95270,803135
23.95897,1795781
23.96522,3758823
23.97147,6627549
23.97773,1.029226E+07
23.98398,1.597423E+07
23.99023,2.412322E+07
23.99650,3.285112E+07
24.00275,3.295725E+07
24.00900,2.806354E+07
24.01527,1.739046E+07
24.02152,7149133
24.02777,2945274
24.03403,1549051
24.04028,1121497
24.04653,937616
24.05280,808385
24.05905,749385
24.06530,761730
24.07157,774668
24.07782,790311
24.08407,769594
24.09033,891135
24.09658,1429204
24.10283,2817314
24.10910,4799954
24.11535,6481769
24.12160,7152751
24.12785,6337418
24.13412,4081604
24.14037,2245836
24.14662,1209843
24.15288,791342
24.15913,658474
24.16538,627105
24.17165,665719
24.17790,775260
24.18415,1012775
24.19042,1443031
24.19667,2321588
24.20292,4689013
24.20918,9645590
24.21543,1.677606E+07
24.22168,2.760416E+07
24.22795,3.527278E+07
24.23420,4.194205E+07
24.24045,4.466103E+07
24.24672,4.646901E+07
24.25297,4.628496E+07
24.25922,4.573295E+07
24.26548,4.400689E+07
24.27173,4.393358E+07
24.27798,3.398266E+07
24.28425,7936843
24.29050,3540029
24.29675,2736244
24.30302,2438130
24.30927,2199208
24.31552,2086814
24.32178,2023935
24.32803,1975568
24.33428,2006935
24.34053,2133397
24.34680,2133664
24.35305,2133462
24.35930,2173201
24.36557,2315761
24.37182,2389980
24.37807,2452385
24.38433,2445239
24.39058,2224992
24.39683,2011718
24.40310,1814480
24.40935,1737898
24.41560,1711489
24.42187,1694636
24.42812,1887055
24.43437,2182801
24.44063,2454873
24.44688,2573024
24.45313,2238655
24.45940,1701955
24.46565,1375824
24.47190,1162988
24.47817,1047776
24.48442,929528
24.49067,858159
24.49693,868005
24.50318,843532
24.50943,799489
24.51570,784206
24.52195,768789
24.52820,746821
24.53447,730780
24.54072,697698
24.54697,680926
24.55323,654528
24.55948,684681
24.56573,746023
24.57198,886547
24.57825,1071489
24.58450,1220483
24.59075,1204630
24.59702,1057592
24.60327,871960
24.60952,711095
24.61578,596674
24.62203,512697
24.62828,473982
24.63455,454620
24.64080,432366
24.64705,418511
24.65332,389296
24.65957,385273
24.66582,376207
24.67208,375521
24.67833,373589
24.68458,386345
24.69085,397968
24.69710,401676
24.70335,407262
24.70962,428312
24.71587,433706
24.72212,408152
24.72838,374884
24.73463,340396
24.74088,324781
24.74715,317596
24.75340,318469
24.75965,346343
24.76592,373792
24.77217,389225
24.77842,390990
24.78467,358429
24.79093,316039
24.79718,284094
24.80343,262483
24.80970,249401
24.81595,246419
24.82220,247059
24.82847,241582
24.83472,235344
24.84097,223890
24.84723,223298
24.85348,219415
24.85973,227302
24.86600,230231
24.87225,244310
24.87850,270681
24.88477,295534
24.89102,330391
24.89727,332037
24.90353,315338
24.90978,323118
24.91603,353442
24.92230,384421
24.92855,406405
24.93480,396097
24.94107,401916
24.94732,435899
24.95357,481453
24.95983,485654
24.96608,444610
24.97233,372665
24.97860,311381
24.98485,270233
24.99110,245401
24.99735,232664
25.00362,227686
25.00987,227016
25.01612,228578
25.02238,226628
25.02863,225638
25.03488,240135
25.04115,239152
25.04740,234685
25.05365,230604
25.05992,221551
25.06617,219111
25.07242,218377
25.07868,221488
25.08493,219382
25.09118,217815
25.09745,213173
25.10370,209452
25.10995,215032
25.11622,201608
25.12247,206697
25.12872,209190
25.13498,205801
25.14123,199988
25.14748,199127
25.15375,192665
25.16000,198007
25.16625,211283
25.17252,247876
25.17877,326780
25.18502,423307
25.19128,461644
25.19753,436956
25.20378,355252
25.21005,274061
25.21630,230247
25.22255,203477
25.22880,195396
25.23507,192333
25.24132,181356
25.24757,179432
25.25383,183269
25.26008,184470
25.26633,187293
25.27260,199076
25.27885,251588
25.28510,342589
25.29137,454733
25.29762,494524
25.30387,469782
25.31013,374636
25.31638,281499
25.32263,228440
25.32890,207016
25.33515,192119
25.34140,194482
25.34767,182826
25.35392,182063
25.36017,182207
25.36643,185970
25.37268,183753
25.37893,186047
25.38520,189807
25.39145,205470
25.39770,223401
25.40397,251678
25.41022,263463
25.41647,260374
25.42273,243970
25.42898,233281
25.43523,230400
25.44148,215554
25.44775,211969
25.45400,206721
25.46025,194510
25.46652,196746
25.47277,207238
25.47902,245016
25.48528,361652
25.49153,517505
25.49778,735999
25.50405,850104
25.51030,788970
25.51655,636815
25.52282,517930
25.52907,496006
25.53532,543235
25.54158,641743
25.54783,641733
25.55408,562934
25.56035,389511
25.56660,282579
25.57285,230160
25.57912,205336
25.58537,196780
25.59162,191470
25.59788,195928
25.60413,197574
25.61038,195789
25.61665,193082
25.62290,183901
25.62915,179375
25.63542,175554
25.64167,169006
25.64792,166711
25.65418,163900
25.66043,162451
25.66668,163656
25.67293,163113
25.67920,166394
25.68545,167113
25.69170,162753
25.69797,163149
25.70422,163080
25.71047,161068
25.71673,157841
25.72298,161562
25.72923,166008
25.73550,174696
25.74175,177975
25.74800,186111
25.75427,183609
25.76052,170071
25.76677,163639
25.77303,165207
25.77928,164471
25.78553,157676
25.79180,155596
25.79805,153917
25.80430,150537
25.81057,155563
25.81682,147640
25.82307,152064
25.82933,147153
25.83558,153860
25.84183,152654
25.84810,148226
25.85435,148376
25.86060,154966
25.86687,152012
25.87312,146399
25.87937,150494
25.88562,148457
25.89188,146652
25.89813,148534
25.90438,152075
25.91065,144991
25.91690,146401
25.92315,158007
25.92942,167208
25.93567,169802
25.94192,175298
25.94818,165906
25.95443,160249
25.96068,151064
25.96695,151452
25.97320,154415
25.97945,155083
25.98572,157393
25.99197,155249
25.99822,153567
26.00448,152213
26.01073,147539
26.01698,148374
26.02325,149910
26.02950,154135
26.03575,154007
26.04202,150826
26.04827,156644
26.05452,154031
26.06078,156796
26.06703,149902
26.07328,151359
26.07955,154616
26.08580,149069
26.09205,149586
26.09832,148839
26.10457,145756
26.11082,149363
26.11707,143950
26.12333,141428
26.12958,144149
26.13583,142628
26.14210,141100
26.14835,139714
26.15460,145693
26.16087,143434
26.16712,148017
26.17337,150831
26.17963,152335
26.18588,149635
26.19213,147821
26.19840,145223
26.20465,144390
26.21090,143954
26.21717,139118
26.22342,142324
26.22967,143072
26.23593,140179
26.24218,142954
26.24843,144119
26.25470,138955
26.26095,145687
26.26720,146507
26.27347,140584
26.27972,144074
26.28597,146015
26.29223,144015
26.29848,145357
26.30473,144913
26.31100,150746
26.31725,145700
26.32350,147369
26.32975,147957
26.33602,156694
26.34227,162882
26.34852,190125
26.35478,208639
26.36103,267075
26.36728,327988
26.37355,382891
26.37980,415546
26.38605,403023
26.39232,332373
26.39857,257196
26.40482,207575
26.41108,179139
26.41733,171622
26.42358,173643
26.42985,164772
26.43610,162425
26.44235,157356
26.44862,156900
26.45487,162936
26.46112,160860
26.46738,159602
26.47363,164356
26.47988,163079
26.48615,167001
26.49240,164455
26.49865,165722
26.50492,166233
26.51117,162830
26.51742,170867
26.52368,178880
26.52993,191203
26.53618,194743
26.54243,187919
26.54870,169403
26.55495,164874
26.56120,165001
26.56747,161956
26.57372,159925
26.57997,164269
26.58623,157825
26.59248,161653
26.59873,165449
26.60500,179409
26.61125,181038
26.61750,188956
26.62377,189830
26.63002,175518
26.63627,174604
26.64253,170730
26.64878,175559
26.65503,199631
26.66130,224151
26.66755,247526
26.67380,254814
26.68007,241582
26.68632,229479
26.69257,234483
26.69883,248067
26.70508,251186
26.71133,241451
26.71760,211587
26.72385,193809
26.73010,183772
26.73637,175753
26.74262,181784
26.74887,204965
26.75513,268873
26.76138,339419
26.76763,387490
26.77388,397492
26.78015,362879
26.78640,337326
26.79265,314818
26.79892,311782
26.80517,298971
26.81142,279031
26.81768,317475
26.82393,432840
26.83018,642554
26.83645,845503
26.84270,843874
26.84895,707429
26.85522,495423
26.86147,348748
26.86772,282385
26.87398,273276
26.88023,306401
26.88648,374624
26.89275,463264
26.89900,744107
26.90525,1676542
26.91152,3962979
26.91777,8134925
26.92402,1.439289E+07
26.93028,2.025045E+07
26.93653,2.362136E+07
26.94278,2.205448E+07
26.94905,1.181675E+07
26.95530,4841975
26.96155,2260493
26.96782,1304601
26.97407,865134
26.98032,585338
26.98657,418158
26.99283,356650
26.99908,349485
27.00533,406333
27.01160,537933
27.01785,795527
27.02410,928411
27.03037,917987
27.03662,734785
27.04287,531494
27.04913,410682
27.05538,354772
27.06163,340822
27.06790,337114
27.07415,311610
27.08040,286752
27.08667,259917
27.09292,257186
27.09917,242401
27.10543,238442
27.11168,241051
27.11793,269094
27.12420,316213
27.13045,382303
27.13670,457123
27.14297,442943
27.14922,386192
27.15547,313041
27.16173,285181
27.16798,273812
27.17423,293825
27.18050,293910
27.18675,279588
27.19300,263682
27.19925,257315
27.20552,250861
27.21177,249762
27.21802,247448
27.22428,241817
27.23053,237721
27.23678,242234
27.24305,248036
27.24930,259917
27.25555,259766
27.26182,253145
27.26807,245255
27.27432,226038
27.28058,231741
27.28683,226894
27.29308,225883
27.29935,226908
27.30560,231604
27.31185,226305
27.31812,232594
27.32437,232021
27.33062,227735
27.33688,240838
27.34313,233323
27.34938,233611
27.35565,244114
27.36190,247139
27.36815,243040
27.37442,238579
27.38067,234417
27.38692,235969
27.39318,250158
27.39943,254366
27.40568,278838
27.41195,280052
27.41820,282798
27.42445,259978
27.43070,241093
27.43697,232210
27.44322,239527
27.44947,220291
27.45573,208103
27.46198,207812
27.46823,207722
27.47450,209562
27.48075,219052
27.48700,214975
27.49327,210577
27.49952,209828
27.50577,201889
27.51203,199858
27.51828,200803
27.52453,207773
27.53080,206610
27.53705,209847
27.54330,211396
27.54957,207598
27.55582,210292
27.56207,203038
27.56833,201149
27.57458,209859
27.58083,215764
27.58710,204430
27.59335,205924
27.59960,207271
27.60587,208891
27.61212,243058
27.61837,213254
27.62463,214920
27.63088,218343
27.63713,216139
27.64338,212605
27.64965,208362
27.65590,212659
27.66215,206535
27.66842,210070
27.67467,224181
27.68092,217794
27.68718,209595
27.69343,218464
27.69968,213373
27.70595,217680
27.71220,224920
27.71845,241323
27.72472,234937
27.73097,232164
27.73722,225114
27.74348,225275
27.74973,226142
27.75598,230719
27.76225,232107
27.76850,234674
27.77475,227777
27.78102,225650
27.78727,218786
27.79352,214551
27.79978,214576
27.80603,210855
27.81228,212783
27.81855,211143
27.82480,220071
27.83105,220132
27.83732,228201
27.84357,224182
27.84982,246160
27.85608,258820
27.86233,276018
27.86858,287730
27.87483,271971
27.88110,256138
27.88735,244779
27.89360,239614
27.89987,231449
27.90612,237589
27.91237,231087
27.91863,223865
27.92488,230051
27.93113,231096
27.93740,219447
27.94365,225220
27.94990,221591
27.95617,225854
27.96242,219884
27.96867,232997
27.97493,230073
27.98118,235383
27.98743,248907
27.99370,249712
27.99995,238057
28.00620,245355
28.01247,239992
28.01872,239563
28.02497,231027
28.03123,232248
28.03748,230192
28.04373,226159
28.05000,231410
28.05625,225622
28.06250,226853
28.06877,229919
28.07502,229922
28.08127,222682
28.08752,225255
28.09378,231762
28.10003,229462
28.10628,233132
28.11255,229996
28.11880,233917
28.12505,233925
28.13132,228200
28.13757,233563
28.14382,229083
28.15008,236711
28.15633,225350
28.16258,230463
28.16885,224525
28.17510,224110
28.18135,229841
28.18762,229105
28.19387,235704
28.20012,227064
28.20638,227250
28.21263,237412
28.21888,233019
28.22515,236100
28.23140,236288
28.23765,243165
28.24392,247150
28.25017,238402
28.25642,255676
28.26268,244140
28.26893,249292
28.27518,259774
28.28145,267064
28.28770,275193
28.29395,270247
28.30022,278925
28.30647,290615
28.31272,290533
28.31897,302622
28.32523,307198
28.33148,313657
28.33773,312466
28.34400,312702
28.35025,316581
28.35650,330529
28.36277,342892
28.36902,337707
28.37527,340569
28.38153,349609
28.38778,339732
28.39403,331047
28.40030,331436
28.40655,330981
28.41280,319773
28.41907,316778
28.42532,299175
28.43157,296527
28.43783,292493
28.44408,290470
28.45033,290269
28.45660,282815
28.46285,279374
28.46910,266530
28.47537,263843
28.48162,261991
28.48787,265267
28.49413,254020
28.50038,250259
28.50663,257447
28.51290,247822
28.51915,245325
28.52540,250394
28.53165,240838
28.53792,240558
28.54417,240841
28.55042,246328
28.55668,245969
28.56293,241036
28.56918,234307
28.57545,239393
28.58170,234426
28.58795,231406
28.59422,244442
28.60047,232090
28.60672,237765
28.61298,238803
28.61923,241241
28.62548,235933
28.63175,241589
28.63800,230659
28.64425,235735
28.65052,244804
28.65677,234044
28.66302,248123
28.66928,233111
28.67553,235525
28.68178,228250
28.68805,239974
28.69430,237879
28.70055,235201
28.70682,230164
28.71307,243761
28.71932,233185
28.72558,233220
28.73183,240029
28.73808,235706
28.74435,232940
28.75060,236204
28.75685,234511
28.76310,232595
28.76937,234861
28.77562,225749
28.78187,223344
28.78813,224156
28.79438,223195
28.80063,229260
28.80690,249896
28.81315,229378
28.81940,222618
28.82567,223287
28.83192,229254
28.83817,224019
28.84443,231796
28.85068,222453
28.85693,231712
28.86320,225536
28.86945,227015
28.87570,230401
28.88197,219124
28.88822,232323
28.89447,230548
28.90073,221489
28.90698,226491
28.91323,219785
28.91950,217501
28.92575,225612
28.93200,228563
28.93827,220432
28.94452,225738
28.95077,218756
28.95703,229199
28.96328,223285
28.96953,219594
28.97578,218557
28.98205,220945
28.98830,225689
28.99455,220980
29.00082,229304
29.00707,222643
29.01332,226319
29.01958,223684
29.02583,229024
29.03208,224294
29.03835,218537
29.04460,222509
29.05085,226099
29.05712,218905
29.06337,216582
29.06962,219024
29.07588,222422
29.08213,224937
29.08838,226030
29.09465,219199
29.10090,224134
29.10715,217536
29.11342,220515
29.11967,221052
29.12592,222447
29.13218,223235
29.13843,219086
29.14468,218204
29.15095,224490
29.15720,217363
29.16345,218478
29.16972,220565
29.17597,216975
29.18222,221224
29.18847,218708
29.19473,216579
29.20098,225438
29.20723,226573
29.21350,223278
29.21975,230168
29.22600,242928
29.23227,251791
29.23852,257198
29.24477,250766
29.25103,237730
29.25728,239466
29.26353,231031
29.26980,233815
29.27605,221476
29.28230,222837
29.28857,225920
29.29482,221350
29.30107,228108
29.30733,225493
29.31358,219795
29.31983,253428
29.32610,263717
29.33235,258613
29.33860,278378
29.34487,285493
29.35112,279374
29.35737,276817
29.36363,286392
29.36988,270348
29.37613,267195
29.38240,260764
29.38865,256255
29.39490,256876
29.40117,253388
29.40742,257177
29.41367,259674
29.41992,256161
29.42618,244431
29.43243,259322
29.43868,248573
29.44495,258985
29.45120,267285
29.45745,240506
29.46372,253887
29.46997,277752
29.47622,285731
29.48248,280009
29.48873,275415
29.49498,273969
29.50125,285460
29.50750,276076
29.51375,285763
29.52002,274432
29.52627,287725
29.53252,274517
29.53878,286198
29.54503,281452
29.55128,282237
29.55755,284027
29.56380,273515
29.57005,274758
29.57632,275479
29.58257,285604
29.58882,287226
29.59508,276281
29.60133,283119
29.60758,270540
29.61385,284231
29.62010,280284
29.62635,274504
29.63260,281273
29.63887,273533
29.64512,283561
29.65137,281779
29.65763,283044
29.66388,278229
29.67013,270799
29.67640,278614
29.68265,268930
29.68890,266676
29.69517,279476
29.70142,275857
29.70767,281169
29.71393,278645
29.72018,275886
29.72643,268999
29.73270,279356
29.73895,268254
29.74520,277250
29.75147,269394
29.75772,271118
29.76397,278718
29.77023,264693
29.77648,276002
29.78273,270508
29.78900,278588
29.79525,278023
29.80150,271863
29.80777,281099
29.81402,270764
29.82027,270763
29.82653,263837
29.83278,268608
29.83903,273013
29.84528,275413
29.85155,268550
29.85780,271095
29.86405,269968
29.87032,264472
29.87657,274630
29.88282,270176
29.88908,269424
29.89533,277490
29.90158,274665
29.90785,267762
29.91410,264696
29.92035,277282
29.92662,265026
29.93287,264706
29.93912,275718
29.94538,267512
29.95163,262999
29.95788,266006
29.96415,273499
29.97040,275178
29.97665,273488
29.98292,274275
29.98917,276936
29.99542,269336
30.00168,263125
30.00793,271013
30.01418,263867
30.02045,272143
30.02670,264231
30.03295,268889
30.03922,270709
30.04547,270749
30.05172,257878
30.05798,270198
30.06423,260318
30.07048,260877
30.07673,261723
30.08300,272862
30.08925,267791
30.09550,270483
30.10177,266462
30.10802,260715
30.11427,269608
30.12053,256599
30.12678,275967
30.13303,265981
30.13930,260962
30.14555,268284
30.15180,255485
30.15807,263392
30.16432,260197
30.17057,257754
30.17683,264024
30.18308,252842
30.18933,264946
30.19560,258714
30.20185,265230
30.20810,258994
30.21437,256880
30.22062,263770
30.22687,252477
30.23313,258794
30.23938,267458
30.24563,255681
30.25190,258131
30.25815,259158
30.26440,253327
30.27067,255653
30.27692,256953
30.28317,253866
30.28943,260763
30.29568,252816
30.30193,262037
30.30818,250753
30.31445,251159
30.32070,266263
30.32695,260781
30.33322,263826
30.33947,260132
30.34572,263250
30.35198,256280
30.35823,256311
30.36448,255325
30.37075,253018
30.37700,251144
30.38325,259508
30.38952,251147
30.39577,246708
30.40202,259226
30.40828,249282
30.41453,260502
30.42078,249225
30.42705,254765
30.43330,255012
30.43955,245901
30.44582,246051
30.45207,242069
30.45832,243927
30.46458,234156
30.47083,230163
30.47708,239996
30.48335,241349
30.48960,227365
30.49585,235887
30.50212,240967
30.50837,228451
30.51462,228031
30.52087,236271
30.52713,230092
30.53338,232866
30.53963,224788
30.54590,227539
30.55215,224335
30.55840,225719
30.56467,226573
30.57092,222648
30.57717,231719
30.58343,228097
30.58968,233089
30.59593,223900
30.60220,237676
30.60845,224314
30.61470,227076
30.62097,234811
30.62722,234522
30.63347,233037
30.63973,229177
30.64598,227439
30.65223,231130
30.65850,238474
30.66475,232309
30.67100,233108
30.67727,252798
30.68352,253179
30.68977,249733
30.69603,259329
30.70228,252867
30.70853,256714
30.71480,239195
30.72105,237510
30.72730,217686
30.73357,230294
30.73982,235106
30.74607,228330
30.75232,204254
30.75858,193586
30.76483,200086
30.77108,202137
30.77735,192487
30.78360,194198
30.78985,196054
30.79612,197570
30.80237,196412
30.80862,190513
30.81488,196740
30.82113,199200
30.82738,192861
30.83365,198412
30.83990,192324
30.84615,195633
30.85242,190354
30.85867,196420
30.86492,195392
30.87118,189876
30.87743,201357
30.88368,193862
30.88995,192452
30.89620,195240
30.90245,197482
30.90872,195770
30.91497,193834
30.92122,193702
30.92748,186751
30.93373,193628
30.93998,199169
30.94625,191567
30.95250,196617
30.95875,194324
30.96500,198845
30.97127,199546
30.97752,197207
30.98377,194335
30.99003,203768
30.99628,207478
31.00253,207764
31.00880,202965
31.01505,202544
31.02130,198620
31.02757,202164
31.03382,195983
31.04007,199049
31.04633,199812
31.05258,196550
31.05883,199115
31.06510,199389
31.07135,200664
31.07760,195435
31.08387,193118
31.09012,190207
31.09637,197319
31.10263,195562
31.10888,192073
31.11513,195598
31.12140,195878
31.12765,190422
31.13390,191820
31.14017,189005
31.14642,194071
31.15267,189881
31.15893,187812
31.16518,183680
31.17143,187711
31.17768,187877
31.18395,194881
31.19020,192158
31.19645,197427
31.20272,194995
31.20897,187780
31.21522,194043
31.22148,194765
31.22773,190633
31.23398,184852
31.24025,193365
31.24650,193908
31.25275,184805
31.25902,187627
31.26527,196934
31.27152,186530
31.27778,186984
31.28403,189156
31.29028,185084
31.29655,186560
31.30280,190573
31.30905,193123
31.31532,188046
31.32157,198559
31.32782,190275
31.33408,191157
31.34033,194916
31.34658,192100
31.35285,196565
31.35910,188665
31.36535,189433
31.37162,194688
31.37787,191798
31.38412,191922
31.39038,187557
31.39663,199746
31.40288,192884
31.40913,191266
31.41540,190301
31.42165,192477
31.42790,191692
31.43417,194486
31.44042,192527
31.44667,187911
31.45293,197885
31.45918,194029
31.46543,191965
31.47170,187702
31.47795,189308
31.48420,186552
31.49047,192130
31.49672,185650
31.50297,189305
31.50923,185660
31.51548,192831
31.52173,190155
31.52800,192109
31.53425,184502
31.54050,186668
31.54677,189516
31.55302,191147
31.55927,186855
31.56553,192526
31.57178,186514
31.57803,188466
31.58430,184470
31.59055,190863
31.59680,190903
31.60307,191583
31.60932,189715
31.61557,189856
31.62182,185657
31.62808,186082
31.63433,180187
31.64058,185322
31.64685,181248
31.65310,186943
31.65935,178234
31.66562,183740
31.67187,183133
31.67812,179275
31.68438,189492
31.69063,181777
31.69688,180957
31.70315,182301
31.70940,186199
31.71565,186431
31.72192,186749
31.72817,180596
31.73442,179615
31.74068,184452
31.74693,184972
31.75318,180880
31.75945,180236
31.76570,181863
31.77195,178758
31.77822,178022
31.78447,181948
31.79072,179646
31.79698,185475
31.80323,179794
31.80948,174791
31.81575,184083
31.82200,182137
31.82825,184718
31.83450,180225
31.84077,177606
31.84702,180408
31.85327,180111
31.85953,179674
31.86578,184061
31.87203,186050
31.87830,182502
31.88455,185903
31.89080,184933
31.89707,183228
31.90332,183160
31.90957,177156
31.91583,180006
31.92208,179689
31.92833,178140
31.93460,183710
31.94085,177970
31.94710,177998
31.95337,186457
31.95962,180986
31.96587,178860
31.97213,178595
31.97838,177142
31.98463,176792
31.99090,180249
31.99715,174352
32.00340,180636
32.00967,181179
32.01592,176954
32.02217,176989
32.02843,178401
32.03468,181690
32.04093,177101
32.04720,180419
32.05345,181999
32.05970,182519
32.06595,176361
32.07222,182222
32.07847,174146
32.08472,176598
32.09098,174495
32.09723,177092
32.10348,178021
32.10975,176681
32.11600,183354
32.12225,182864
32.12852,181647
32.13477,181719
32.14102,176364
32.14728,173762
32.15353,179542
32.15978,182016
32.16605,184130
32.17230,174987
32.17855,180825
32.18482,181374
32.19107,175228
32.19732,171913
32.20358,172033
32.20983,176469
32.21608,179402
32.22235,174072
32.22860,177538
32.23485,175785
32.24112,178891
32.24737,176403
32.25362,179224
32.25988,173265
32.26613,174123
32.27238,172670
32.27863,181088
32.28490,182063
32.29115,177739
32.29740,174481
32.30367,173297
32.30992,173686
32.31617,173619
32.32243,174517
32.32868,174928
32.33493,173628
32.34120,175117
32.34745,172112
32.35370,176454
32.35997,172988
32.36622,178354
32.37247,169105
32.37873,175879
32.38498,177243
32.39123,182420
32.39750,178477
32.40375,181459
32.41000,173093
32.41627,172561
32.42252,175097
32.42877,173938
32.43503,174053
32.44128,171384
32.44753,181723
32.45380,175205
32.46005,176913
32.46630,172871
32.47257,173135
32.47882,168815
32.48507,174753
32.49132,174509
32.49758,171400
32.50383,173430
32.51008,170032
32.51635,175417
32.52260,176109
32.52885,172426
32.53512,180320
32.54137,175139
32.54762,180855
32.55388,171601
32.56013,168677
32.56638,174878
32.57265,173893
32.57890,178366
32.58515,176866
32.59142,172793
32.59767,180559
32.60392,169805
32.61018,170660
32.61643,178662
32.62268,174664
32.62895,169938
32.63520,176491
32.64145,170816
32.64772,175355
32.65397,171727
32.66022,173595
32.66648,175454
32.67273,170658
32.67898,171043
32.68525,170523
32.69150,170438
32.69775,180967
32.70402,168566
32.71027,170367
32.71652,168377
32.72277,172426
32.72903,169937
32.73528,170311
32.74153,169809
32.74780,170107
32.75405,168772
32.76030,176391
32.76657,166477
32.77282,173010
32.77907,173243
32.78533,168533
32.79158,175192
32.79783,173411
32.80410,166671
32.81035,170657
32.81660,167700
32.82287,165725
32.82912,164713
32.83537,171364
32.84163,168822
32.84788,166220
32.85413,171185
32.86040,169408
32.86665,165378
32.87290,173761
32.87917,166031
32.88542,172963
32.89167,169150
32.89793,167711
32.90418,163839
32.91043,167124
32.91670,166242
32.92295,171331
32.92920,168402
32.93545,171256
32.94172,173424
32.94797,168264
32.95422,165850
32.96048,168961
32.96673,171374
32.97298,172002
32.97925,173539
32.98550,162693
32.99175,167624
32.99802,168058
33.00427,172642
33.01052,166085
33.01678,174658
33.02303,164056
33.02928,171977
33.03555,175694
33.04180,165913
33.04805,170306
33.05432,169865
33.06057,165015
33.06682,168237
33.07308,169948
33.07933,165320
33.08558,167348
33.09185,164033
33.09810,167945
33.10435,163416
33.11062,169885
33.11687,168539
33.12312,171818
33.12938,170904
33.13563,173119
33.14188,177931
33.14815,178908
33.15440,181671
33.16065,179739
33.16690,183459
33.17317,184338
33.17942,184069
33.18567,183042
33.19193,186209
33.19818,181384
33.20443,177017
33.21070,171393
33.21695,170622
33.22320,170175
33.22947,171056
33.23572,174105
33.24197,167387
33.24823,167729
33.25448,170098
33.26073,168875
33.26700,169616
33.27325,166520
33.27950,174891
33.28577,166116
33.29202,168512
33.29827,165136
33.30453,170872
33.31078,169482
33.31703,163621
33.32330,173384
33.32955,164823
33.33580,165912
33.34207,162885
33.34832,170052
33.35457,171683
33.36083,170707
33.36708,169041
33.37333,166969
33.37958,173222
33.38585,167864
33.39210,172672
33.39835,169760
33.40462,164696
33.41087,169757
33.41712,161398
33.42338,161052
33.42963,169475
33.43588,164842
33.44215,161980
33.44840,162413
33.45465,167226
33.46092,162351
33.46717,165807
33.47342,167600
33.47968,159991
33.48593,165924
33.49218,162348
33.49845,165543
33.50470,163820
33.51095,170779
33.51722,167995
33.52347,163067
33.52972,159362
33.53598,167264
33.54223,161718
33.54848,162293
33.55475,166181
33.56100,161048
33.56725,170003
33.57352,164989
33.57977,165282
33.58602,158465
33.59228,156902
33.59853,169690
33.60478,165408
33.61103,160398
33.61730,168311
33.62355,163757
33.62980,162130
33.63607,159972
33.64232,166814
33.64857,165852
33.65483,162895
33.66108,161450
33.66733,162688
33.67360,161034
33.67985,161574
33.68610,162877
33.69237,161686
33.69862,163920
33.70487,160300
33.71113,160223
33.71738,160859
33.72363,157358
33.72990,163205
33.73615,164859
33.74240,164497
33.74867,166093
33.75492,164806
33.76117,158489
33.76743,161106
33.77368,161874
33.77993,161010
33.78620,161266
33.79245,162569
33.79870,163201
33.80497,157064
33.81122,165272
33.81747,164461
33.82372,165548
33.82998,159534
33.83623,167580
33.84248,161857
33.84875,162435
33.85500,165873
33.86125,160768
33.86752,167469
33.87377,163851
33.88002,164511
33.88628,159842
33.89253,159163
33.89878,162238
33.90505,158419
33.91130,163828
33.91755,156720
33.92382,161204
33.93007,157732
33.93632,159045
33.94258,156965
33.94883,163916
33.95508,156689
33.96135,156884
33.96760,163179
33.97385,167912
33.98012,154591
33.98637,162074
33.99262,154082
33.99888,156752
34.00513,159980
34.01138,157979
34.01765,156892
34.02390,161883
34.03015,156114
34.03642,159478
34.04267,157548
34.04892,156680
34.05517,159195
34.06143,156382
34.06768,155553
34.07393,158240
34.08020,153273
34.08645,157723
34.09270,158489
34.09897,157981
34.10522,161505
34.11147,155957
34.11773,158488
34.12398,160703
34.13023,158328
34.13650,159650
34.14275,160748
34.14900,162217
34.15527,155510
34.16152,154924
34.16777,162479
34.17403,155256
34.18028,160098
34.18653,155534
34.19280,155669
34.19905,158920
34.20530,160557
34.21157,153847
34.21782,154524
34.22407,155533
34.23033,154932
34.23658,160749
34.24283,153399
34.24910,154825
34.25535,158158
34.26160,158682
34.26785,153246
34.27412,157361
34.28037,162181
34.28662,159134
34.29288,161382
34.29913,155628
34.30538,154267
34.31165,167544
34.31790,166755
34.32415,154691
34.33042,158398
34.33667,154865
34.34292,157507
34.34918,157110
34.35543,160135
34.36168,153466
34.36795,156180
34.37420,154195
34.38045,159021
34.38672,156351
34.39297,154863
34.39922,153571
34.40548,155697
34.41173,157144
34.41798,155809
34.42425,155687
34.43050,160938
34.43675,156405
34.44302,157074
34.44927,154378
34.45552,157533
34.46178,153952
34.46803,150751
34.47428,153752
34.48053,156376
34.48680,152321
34.49305,159082
34.49930,156287
34.50557,154592
34.51182,152777
34.51807,156562
34.52433,153512
34.53058,152670
34.53683,151909
34.54310,153245
34.54935,153849
34.55560,159044
34.56187,149043
34.56812,155421
34.57437,159053
34.58063,152245
34.58688,152418
34.59313,157467
34.59940,152815
34.60565,154879
34.61190,151578
34.61817,158120
34.62442,153876
34.63067,154598
34.63693,153115
34.64318,157064
34.64943,158661
34.65570,155996
34.66195,151794
34.66820,157835
34.67447,154190
34.68072,154023
34.68697,157079
34.69323,154998
34.69948,163472
34.70573,154575
34.71198,153607
34.71825,148888
34.72450,155577
34.73075,150026
34.73702,154625
34.74327,152911
34.74952,155320
34.75578,152160
34.76203,153930
34.76828,154933
34.77455,156755
34.78080,152703
34.78705,150938
34.79332,152572
34.79957,150571
34.80582,155497
34.81208,158766
34.81833,148921
34.82458,156101
34.83085,153868
34.83710,148784
34.84335,150051
34.84962,150404
34.85587,152678
34.86212,154263
34.86838,158712
34.87463,148928
34.88088,151846
34.88715,152338
34.89340,155045
34.89965,147818
34.90592,148635
34.91217,148733
34.91842,154359
34.92467,154080
34.93093,155595
34.93718,153394
34.94343,147857
34.94970,153101
34.95595,147624
34.96220,152783
34.96847,146217
34.97472,154978
34.98097,150299
34.98723,154459
34.99348,148281
34.99973,150446
35.00600,145623
35.01225,154649
35.01850,152327
35.02477,149081
35.03102,149765
35.03727,149476
35.04353,149793
35.04978,150379
35.05603,145645
35.06230,147467
35.06855,145861
35.07480,153411
35.08107,152682
35.08732,152026
35.09357,150396
35.09983,150210
35.10608,152677
35.11233,153909
35.11860,150613
35.12485,148257
35.13110,149147
35.13735,151795
35.14362,153138
35.14987,153085
35.15612,152469
35.16238,148180
35.16863,149778
35.17488,150528
35.18115,153160
35.18740,147641
35.19365,151748
35.19992,141382
35.20617,147190
35.21242,147297
35.21868,147976
35.22493,145383
35.23118,151026
35.23745,152937
35.24370,147079
35.24995,153131
35.25622,148195
35.26247,151024
35.26872,148784
35.27498,146492
35.28123,151157
35.28748,153983
35.29375,154484
35.30000,146142
35.30625,151301
35.31252,150897
35.31877,143001
35.32502,144827
35.33128,146276
35.33753,147047
35.34378,149829
35.35005,146151
35.35630,147961
35.36255,144357
35.36880,144152
35.37507,144531
35.38132,144898
35.38757,145963
35.39383,150122
35.40008,144556
35.40633,147379
35.41260,151671
35.41885,150310
35.42510,143653
35.43137,148220
35.43762,151854
35.44387,153426
35.45013,146264
35.45638,150063
35.46263,146368
35.46890,147842
35.47515,146281
35.48140,145532
35.48767,146334
35.49392,145145
35.50017,147410
35.50643,150959
35.51268,141880
35.51893,149880
35.52520,144649
35.53145,148467
35.53770,149004
35.54397,151144
35.55022,147627
35.55647,146627
35.56273,170747
35.56898,162264
35.57523,165851
35.58148,162232
35.58775,161126
35.59400,170511
35.60025,166053
35.60652,175065
35.61277,154445
35.61902,171056
35.62528,173189
35.63153,177249
35.63778,177881
35.64405,174928
35.65030,170401
35.65655,174907
35.66282,172709
35.66907,172796
35.67532,171872
35.68158,171121
35.68783,185698
35.69408,184669
35.70035,180707
35.70660,181528
35.71285,180617
35.71912,190085
35.72537,181314
35.73162,182202
35.73788,176759
35.74413,180754
35.75038,187387
35.75665,183650
35.76290,180944
35.76915,184504
35.77542,184633
35.78167,188654
35.78792,186333
35.79418,185219
35.80043,188359
35.80668,188014
35.81293,178101
35.81920,179828
35.82545,180705
35.83170,177243
35.83797,182344
35.84422,177350
35.85047,184070
35.85673,181559
35.86298,183366
35.86923,182003
35.87550,178452
35.88175,174683
35.88800,184541
35.89427,176394
35.90052,180904
35.90677,177858
35.91303,172591
35.91928,176844
35.92553,181347
35.93180,182271
35.93805,179652
35.94430,174907
35.95057,167785
35.95682,173842
35.96307,168900
35.96933,169866
35.97558,169413
35.98183,172102
35.98810,171400
35.99435,167394
36.00060,169899
36.00687,164212
36.01312,167020
36.01937,170421
36.02562,163726
36.03188,165904
36.03813,173720
36.04438,172100
36.05065,169991
36.05690,171506
36.06315,171787
36.06942,169951
36.07567,169162
36.08192,171263
36.08818,166033
36.09443,172283
36.10068,172904
36.10695,174033
36.11320,169638
36.11945,163695
36.12572,165953
36.13197,171857
36.13822,173411
36.14448,175910
36.15073,175567
36.15698,177655
36.16325,181207
36.16950,178420
36.17575,177581
36.18202,176821
36.18827,176497
36.19452,180097
36.20078,176183
36.20703,182503
36.21328,184960
36.21955,187414
36.22580,197162
36.23205,201102
36.23832,199070
36.24457,211088
36.25082,218959
36.25707,229011
36.26333,234737
36.26958,246125
36.27583,241090
36.28210,263808
36.28835,277262
36.29460,284436
36.30087,306467
36.30712,316231
36.31337,314828
36.31963,318892
36.32588,308403
36.33213,301826
36.33840,293984
36.34465,280810
36.35090,276319
36.35717,262679
36.36342,247226
36.36967,234737
36.37593,222184
36.38218,212097
36.38843,209796
36.39470,197937
36.40095,194523
36.40720,189711
36.41347,183249
36.41972,189664
36.42597,188815
36.43223,182111
36.43848,175080
36.44473,176773
36.45100,175060
36.45725,167545
36.46350,160183
36.46975,166262
36.47602,167815
36.48227,150033
36.48852,153918
36.49478,148685
36.50103,148085
36.50728,151908
36.51355,150558
36.51980,149295
36.52605,142572
36.53232,145317
36.53857,146545
36.54482,151540
36.55108,147827
36.55733,151436
36.56358,147368
36.56985,140658
36.57610,142887
36.58235,147841
36.58862,145795
36.59487,147194
36.60112,146701
36.60738,145048
36.61363,143117
36.61988,145550
36.62615,143069
36.63240,141767
36.63865,136770
36.64492,141686
36.65117,139706
36.65742,142403
36.66368,147405
36.66993,143385
36.67618,144022
36.68245,142033
36.68870,143552
36.69495,140426
36.70120,140974
36.70747,142411
36.71372,144877
36.71997,143238
36.72623,141451
36.73248,144087
36.73873,139285
36.74500,140389
36.75125,145580
36.75750,141268
36.76377,136981
36.77002,144849
36.77627,139722
36.78253,144329
36.78878,137837
36.79503,140154
36.80130,135883
36.80755,139121
36.81380,139273
36.82007,139834
36.82632,138332
36.83257,137871
36.83883,142352
36.84508,139751
36.85133,135927
36.85760,140230
36.86385,138529
36.87010,146567
36.87637,136226
36.88262,137376
36.88887,136914
36.89513,142510
36.90138,139996
36.90763,140565
36.91388,135305
36.92015,139936
36.92640,135782
36.93265,133474
36.93892,142715
36.94517,136843
36.95142,140448
36.95768,137075
36.96393,140672
36.97018,138209
36.97645,136355
36.98270,135197
36.98895,141783
36.99522,137692
37.00147,137658
37.00772,142418
37.01398,137385
37.02023,140395
37.02648,139505
37.03275,140091
37.03900,141657
37.04525,135404
37.05152,138082
37.05777,139804
37.06402,142517
37.07028,135254
37.07653,137710
37.08278,138848
37.08905,136149
37.09530,135705
37.10155,140388
37.10782,133876
37.11407,141463
37.12032,136117
37.12657,134310
37.13283,138700
37.13908,134768
37.14533,138752
37.15160,135016
37.15785,137018
37.16410,136016
37.17037,130131
37.17662,136248
37.18287,135743
37.18913,136941
37.19538,134559
37.20163,136298
37.20790,137403
37.21415,137532
37.22040,135809
37.22667,133441
37.23292,134886
37.23917,138346
37.24543,137393
37.25168,137761
37.25793,139408
37.26420,135927
37.27045,138828
37.27670,135278
37.28297,136685
37.28922,133940
37.29547,135023
37.30173,137610
37.30798,137761
37.31423,135425
37.32050,135075
37.32675,138896
37.33300,137252
37.33927,136205
37.34552,133201
37.35177,134462
37.35802,135844
37.36428,134870
37.37053,135708
37.37678,129179
37.38305,135376
37.38930,136823
37.39555,137326
37.40182,131826
37.40807,135116
37.41432,130579
37.42058,134288
37.42683,131526
37.43308,134225
37.43935,131959
37.44560,132077
37.45185,133269
37.45812,134627
37.46437,135759
37.47062,133419
37.47688,138800
37.48313,134443
37.48938,130193
