D:\MassHunter\GCMS\1\data\metastasis_lineages_3replicates_3runs_10302020\B_plate2_run3_10302020.D Sat Oct 31 12:54:58 2020
Start of data points
5.99340,216635
5.99967,233761
6.00592,231546
6.01217,241834
6.01843,235729
6.02468,220325
6.03093,234743
6.03720,259505
6.04345,257108
6.04970,260065
6.05597,251673
6.06222,256848
6.06847,268948
6.07473,270868
6.08098,240119
6.08723,224683
6.09350,302462
6.09975,627710
6.10600,1153435
6.11227,1399582
6.11852,1083899
6.12477,593741
6.13103,355125
6.13728,269626
6.14353,272892
6.14980,370140
6.15605,606630
6.16230,969132
6.16857,1273074
6.17482,1188121
6.18107,808413
6.18732,480657
6.19358,313034
6.19983,256174
6.20608,240427
6.21235,227340
6.21860,215905
6.22485,209967
6.23112,201419
6.23737,191059
6.24362,182083
6.24988,168041
6.25613,170306
6.26238,172131
6.26865,181366
6.27490,182962
6.28115,180541
6.28742,180099
6.29367,192831
6.29992,274782
6.30618,454367
6.31243,841203
6.31868,1726282
6.32495,4308392
6.33120,9378281
6.33745,1.481937E+07
6.34372,1.522946E+07
6.34997,8783371
6.35622,2461478
6.36248,536281
6.36873,267169
6.37498,232256
6.38125,233675
6.38750,213566
6.39375,241101
6.40000,328747
6.40627,529585
6.41252,731541
6.41877,734013
6.42503,745213
6.43128,932026
6.43753,1026552
6.44380,863441
6.45005,1000598
6.45630,2365256
6.46257,5986292
6.46882,1.239269E+07
6.47507,1.999036E+07
6.48133,2.823963E+07
6.48758,3.607551E+07
6.49383,4.255803E+07
6.50010,4.64311E+07
6.50635,4.765868E+07
6.51260,4.758545E+07
6.51887,4.69913E+07
6.52512,4.193462E+07
6.53137,7104643
6.53763,903940
6.54388,751936
6.55013,835975
6.55640,1012827
6.56265,1435769
6.56890,2227584
6.57517,2859378
6.58142,2436622
6.58767,1290285
6.59393,582402
6.60018,368532
6.60643,323133
6.61270,302050
6.61895,296612
6.62520,291713
6.63145,303426
6.63772,316194
6.64397,318090
6.65022,303422
6.65648,293294
6.66273,360425
6.66898,457001
6.67525,487978
6.68150,417085
6.68775,343877
6.69402,309350
6.70027,283204
6.70652,298870
6.71278,306130
6.71903,336945
6.72528,345538
6.73155,354276
6.73780,367952
6.74405,382481
6.75032,384577
6.75657,390462
6.76282,378560
6.76908,386169
6.77533,374157
6.78158,385956
6.78785,402292
6.79410,431548
6.80035,501581
6.80662,566846
6.81287,594229
6.81912,542003
6.82538,519410
6.83163,507925
6.83788,546090
6.84413,610443
6.85040,656519
6.85665,613059
6.86290,549007
6.86917,539171
6.87542,617892
6.88167,784031
6.88793,871465
6.89418,799222
6.90043,650495
6.90670,548887
6.91295,502095
6.91920,481584
6.92547,462513
6.93172,460260
6.93797,461992
6.94423,449613
6.95048,431685
6.95673,411953
6.96300,400299
6.96925,381920
6.97550,387385
6.98177,387019
6.98802,379567
6.99427,353558
7.00053,333164
7.00678,321921
7.01303,337125
7.01930,436495
7.02555,746834
7.03180,1711148
7.03807,3963362
7.04432,7064506
7.05057,8665721
7.05682,6759496
7.06308,3277142
7.06933,1074048
7.07558,383101
7.08185,242584
7.08810,210230
7.09435,198008
7.10062,190987
7.10687,174296
7.11312,175280
7.11938,156077
7.12563,158100
7.13188,186060
7.13815,237852
7.14440,333392
7.15065,402521
7.15692,364656
7.16317,256729
7.16942,182091
7.17568,148524
7.18193,143670
7.18818,135124
7.19445,144605
7.20070,152067
7.20695,161407
7.21322,152140
7.21947,146558
7.22572,138955
7.23198,143745
7.23823,167091
7.24448,200136
7.25075,293759
7.25700,489367
7.26325,725769
7.26952,750416
7.27577,581978
7.28202,362653
7.28827,231142
7.29453,178653
7.30078,166159
7.30703,163135
7.31330,154015
7.31955,145191
7.32580,128811
7.33207,131232
7.33832,126857
7.34457,122880
7.35083,124592
7.35708,116930
7.36333,115469
7.36960,113650
7.37585,116159
7.38210,132427
7.38837,151569
7.39462,168413
7.40087,160597
7.40713,151503
7.41338,200491
7.41963,297950
7.42590,394535
7.43215,409442
7.43840,359579
7.44467,264666
7.45092,198834
7.45717,169421
7.46343,159258
7.46968,161870
7.47593,179449
7.48220,183463
7.48845,201210
7.49470,222596
7.50095,254860
7.50722,276977
7.51347,246188
7.51972,186743
7.52598,147406
7.53223,126374
7.53848,131701
7.54475,196093
7.55100,615944
7.55725,2485076
7.56352,7481029
7.56977,1.588296E+07
7.57602,2.536673E+07
7.58228,3.11325E+07
7.58853,2.923471E+07
7.59478,1.663736E+07
7.60105,5299455
7.60730,2114387
7.61355,1465757
7.61982,1076941
7.62607,839369
7.63232,617939
7.63858,430419
7.64483,284470
7.65108,230503
7.65735,209945
7.66360,206863
7.66985,260557
7.67612,346942
7.68237,418756
7.68862,381058
7.69488,281301
7.70113,210764
7.70738,212403
7.71363,295421
7.71990,397451
7.72615,431441
7.73240,365181
7.73867,292251
7.74492,232238
7.75117,198339
7.75743,172434
7.76368,155166
7.76993,144840
7.77620,159023
7.78245,164850
7.78870,163137
7.79497,162593
7.80122,163527
7.80747,153234
7.81373,168151
7.81998,215604
7.82623,303138
7.83250,373662
7.83875,354052
7.84500,275969
7.85127,217134
7.85752,235431
7.86377,270628
7.87003,286569
7.87628,249451
7.88253,215837
7.88880,191714
7.89505,179148
7.90130,190070
7.90757,208467
7.91382,219268
7.92007,208746
7.92633,211180
7.93258,196217
7.93883,203102
7.94508,230848
7.95135,304269
7.95760,364303
7.96385,361269
7.97012,322205
7.97637,306937
7.98262,348487
7.98888,504158
7.99513,819722
8.00138,1158441
8.00765,1478957
8.01390,2135866
8.02015,2811090
8.02642,2660165
8.03267,1913803
8.03892,1179516
8.04518,968578
8.05143,1043059
8.05768,1101214
8.06395,858700
8.07020,547035
8.07645,362447
8.08272,366630
8.08897,487927
8.09522,607787
8.10148,658333
8.10773,730550
8.11398,928027
8.12025,1090477
8.12650,907819
8.13275,548547
8.13902,308696
8.14527,222104
8.15152,185717
8.15777,170066
8.16403,158646
8.17028,152552
8.17653,153933
8.18280,151106
8.18905,142937
8.19530,140829
8.20157,132887
8.20782,133047
8.21407,143223
8.22033,162895
8.22658,222601
8.23283,316121
8.23910,377948
8.24535,347257
8.25160,278752
8.25787,224399
8.26412,208780
8.27037,194624
8.27663,204272
8.28288,233199
8.28913,261358
8.29540,246521
8.30165,212746
8.30790,158084
8.31417,138380
8.32042,125373
8.32667,123286
8.33293,133114
8.33918,138852
8.34543,135174
8.35170,133602
8.35795,141388
8.36420,151275
8.37047,149857
8.37672,140312
8.38297,132443
8.38922,139995
8.39548,184889
8.40173,294342
8.40798,445034
8.41425,507389
8.42050,394757
8.42675,255457
8.43302,187260
8.43927,177423
8.44552,186047
8.45178,193965
8.45803,187556
8.46428,175858
8.47055,162444
8.47680,155087
8.48305,161173
8.48932,158117
8.49557,166798
8.50182,181931
8.50808,198233
8.51433,190648
8.52058,164650
8.52685,143101
8.53310,128143
8.53935,119132
8.54562,126043
8.55187,133754
8.55812,190311
8.56438,318826
8.57063,533020
8.57688,817359
8.58315,1256057
8.58940,1768123
8.59565,1903703
8.60190,1792276
8.60817,2509849
8.61442,5956686
8.62067,1.243796E+07
8.62693,1.861553E+07
8.63318,1.969977E+07
8.63943,1.399797E+07
8.64570,5584728
8.65195,1381389
8.65820,396071
8.66447,258274
8.67072,243580
8.67697,228784
8.68323,217297
8.68948,233735
8.69573,246353
8.70200,241860
8.70825,245123
8.71450,249195
8.72077,239183
8.72702,208286
8.73327,192952
8.73953,196451
8.74578,220916
8.75203,220829
8.75830,187864
8.76455,150101
8.77080,129371
8.77707,121730
8.78332,127729
8.78957,125793
8.79583,116679
8.80208,114559
8.80833,107900
8.81460,113292
8.82085,119887
8.82710,188308
8.83335,474196
8.83962,1346760
8.84587,3250872
8.85212,5986513
8.85838,8175615
8.86463,8533873
8.87088,7110574
8.87715,6058529
8.88340,6290836
8.88965,6688031
8.89592,5340412
8.90217,2282906
8.90842,768460
8.91468,349914
8.92093,232412
8.92718,182171
8.93345,173308
8.93970,165477
8.94595,169045
8.95222,195725
8.95847,249517
8.96472,296737
8.97098,338743
8.97723,360155
8.98348,376178
8.98975,449825
8.99600,613058
9.00225,836300
9.00852,1044093
9.01477,1009272
9.02102,781285
9.02728,633789
9.03353,914421
9.03978,1720541
9.04603,2514767
9.05230,2336304
9.05855,1397416
9.06480,647403
9.07107,324712
9.07732,232102
9.08357,207636
9.08983,210111
9.09608,223951
9.10233,222818
9.10860,202637
9.11485,187349
9.12110,168171
9.12737,174330
9.13362,223766
9.13987,260749
9.14613,271540
9.15238,265231
9.15863,304452
9.16490,352763
9.17115,377759
9.17740,377130
9.18367,421847
9.18992,521828
9.19617,535181
9.20243,442731
9.20868,296218
9.21493,199119
9.22120,160470
9.22745,154303
9.23370,179613
9.23997,240595
9.24622,293721
9.25247,306546
9.25873,252429
9.26498,185876
9.27123,143857
9.27748,132901
9.28375,137188
9.29000,177406
9.29625,252069
9.30252,360302
9.30877,461826
9.31502,564241
9.32128,659100
9.32753,661183
9.33378,621557
9.34005,746458
9.34630,1062847
9.35255,1269949
9.35882,1070581
9.36507,684019
9.37132,531941
9.37758,1307021
9.38383,4449379
9.39008,1.090095E+07
9.39635,1.722118E+07
9.40260,1.961806E+07
9.40885,1.567848E+07
9.41512,7309850
9.42137,2074266
9.42762,1083340
9.43388,2669287
9.44013,8145201
9.44638,1.802677E+07
9.45265,2.817265E+07
9.45890,3.280676E+07
9.46515,2.769268E+07
9.47142,1.484208E+07
9.47767,4642562
9.48392,1234517
9.49017,480770
9.49643,297144
9.50268,237682
9.50893,223913
9.51520,219468
9.52145,226389
9.52770,218721
9.53397,213285
9.54022,208766
9.54647,216329
9.55273,199693
9.55898,196945
9.56523,210721
9.57150,225626
9.57775,238264
9.58400,230678
9.59027,214170
9.59652,208045
9.60277,218173
9.60903,260779
9.61528,283779
9.62153,271314
9.62780,228483
9.63405,185214
9.64030,165092
9.64657,164981
9.65282,168825
9.65907,164280
9.66533,168424
9.67158,242404
9.67783,770187
9.68410,2956276
9.69035,8179520
9.69660,1.490306E+07
9.70285,1.913314E+07
9.70912,1.699898E+07
9.71537,9768208
9.72162,3715140
9.72788,2618716
9.73413,3656552
9.74038,4418767
9.74665,3714528
9.75290,2047255
9.75915,825015
9.76542,351750
9.77167,239022
9.77792,207755
9.78418,182180
9.79043,162282
9.79668,151411
9.80295,147215
9.80920,144816
9.81545,143903
9.82172,138960
9.82797,145063
9.83422,158910
9.84048,188704
9.84673,281146
9.85298,705244
9.85925,2343267
9.86550,6594451
9.87175,1.263675E+07
9.87802,1.688782E+07
9.88427,1.516102E+07
9.89052,8805664
9.89678,3494133
9.90303,1870015
9.90928,2060586
9.91555,2058000
9.92180,1470045
9.92805,720937
9.93430,331013
9.94057,218719
9.94682,211104
9.95307,262770
9.95933,420148
9.96558,721970
9.97183,1106681
9.97810,1346731
9.98435,1378926
9.99060,1300143
9.99687,1119495
10.00312,848779
10.00937,549385
10.01563,368702
10.02188,289711
10.02813,242026
10.03440,211609
10.04065,195489
10.04690,199669
10.05317,193320
10.05942,179013
10.06567,155728
10.07193,146401
10.07818,146191
10.08443,169841
10.09070,191047
10.09695,210838
10.10320,220288
10.10947,215324
10.11572,202491
10.12197,185794
10.12823,167415
10.13448,151312
10.14073,139090
10.14698,138629
10.15325,142978
10.15950,143731
10.16575,141216
10.17202,152501
10.17827,165048
10.18452,187923
10.19078,186584
10.19703,182262
10.20328,168015
10.20955,170851
10.21580,238260
10.22205,412981
10.22832,707206
10.23457,1070268
10.24082,1266362
10.24708,1167431
10.25333,864696
10.25958,550564
10.26585,370731
10.27210,293508
10.27835,246401
10.28462,269890
10.29087,350843
10.29712,420430
10.30338,370440
10.30963,295187
10.31588,232574
10.32215,219409
10.32840,263136
10.33465,351025
10.34092,397863
10.34717,356217
10.35342,262204
10.35967,204883
10.36593,190391
10.37218,182317
10.37843,169168
10.38470,155202
10.39095,145122
10.39720,129765
10.40347,121487
10.40972,115239
10.41597,121210
10.42223,140452
10.42848,145389
10.43473,158871
10.44100,160799
10.44725,169360
10.45350,176975
10.45977,177201
10.46602,174685
10.47227,193396
10.47853,264479
10.48478,393230
10.49103,466334
10.49730,424405
10.50355,292549
10.50980,200040
10.51607,157099
10.52232,153812
10.52857,190786
10.53483,248517
10.54108,306083
10.54733,305497
10.55360,253400
10.55985,216057
10.56610,204524
10.57237,207383
10.57862,227118
10.58487,240890
10.59112,247583
10.59738,313923
10.60363,772316
10.60988,2606456
10.61615,6667164
10.62240,1.235707E+07
10.62865,1.645679E+07
10.63492,1.485745E+07
10.64117,8065338
10.64742,2727164
10.65368,759382
10.65993,282586
10.66618,207427
10.67245,219194
10.67870,231486
10.68495,223910
10.69122,201020
10.69747,171937
10.70372,157425
10.70998,150333
10.71623,162434
10.72248,173812
10.72875,188893
10.73500,185888
10.74125,192365
10.74752,183086
10.75377,178465
10.76002,175700
10.76628,188217
10.77253,199861
10.77878,211916
10.78505,202162
10.79130,199022
10.79755,192802
10.80380,207295
10.81007,275064
10.81632,395617
10.82257,463841
10.82883,424202
10.83508,300798
10.84133,209879
10.84760,176404
10.85385,180922
10.86010,193530
10.86637,201082
10.87262,207359
10.87887,195420
10.88513,190489
10.89138,190650
10.89763,202402
10.90390,213404
10.91015,213993
10.91640,201588
10.92267,189674
10.92892,198256
10.93517,207318
10.94143,192772
10.94768,167421
10.95393,184670
10.96020,304111
10.96645,880378
10.97270,2893309
10.97897,7382499
10.98522,1.473824E+07
10.99147,2.229879E+07
10.99773,2.602582E+07
11.00398,2.135736E+07
11.01023,1.105714E+07
11.01650,3406995
11.02275,740894
11.02900,300309
11.03525,284725
11.04152,305626
11.04777,319809
11.05402,371014
11.06028,401789
11.06653,400685
11.07278,336837
11.07905,246864
11.08530,186098
11.09155,173851
11.09782,188583
11.10407,204039
11.11032,200828
11.11658,193490
11.12283,196610
11.12908,221734
11.13535,236503
11.14160,250270
11.14785,247847
11.15412,316929
11.16037,482437
11.16662,685014
11.17288,753858
11.17913,635809
11.18538,416878
11.19165,268496
11.19790,202505
11.20415,206411
11.21042,250560
11.21667,287781
11.22292,299809
11.22918,283925
11.23543,251909
11.24168,238739
11.24793,254181
11.25420,286183
11.26045,290482
11.26670,269047
11.27297,278561
11.27922,309557
11.28547,318560
11.29173,287637
11.29798,241271
11.30423,207569
11.31050,215362
11.31675,292613
11.32300,489682
11.32927,717527
11.33552,813479
11.34177,630632
11.34803,385824
11.35428,227219
11.36053,173980
11.36680,166088
11.37305,172763
11.37930,163031
11.38557,150234
11.39182,150002
11.39807,155527
11.40433,160230
11.41058,168859
11.41683,162152
11.42310,161841
11.42935,181693
11.43560,249103
11.44187,429465
11.44812,714406
11.45437,909560
11.46063,857124
11.46688,607830
11.47313,354135
11.47938,252395
11.48565,225324
11.49190,207441
11.49815,193805
11.50442,187423
11.51067,178264
11.51692,170203
11.52318,164518
11.52943,162497
11.53568,163340
11.54195,175188
11.54820,174364
11.55445,169951
11.56072,157646
11.56697,148400
11.57322,141784
11.57948,147938
11.58573,155687
11.59198,159563
11.59825,167971
11.60450,169229
11.61075,159480
11.61702,164848
11.62327,163551
11.62952,161820
11.63578,161842
11.64203,178077
11.64828,191602
11.65455,215020
11.66080,235682
11.66705,224493
11.67332,205461
11.67957,181168
11.68582,167730
11.69207,167490
11.69833,185915
11.70458,228362
11.71083,289293
11.71710,361194
11.72335,384438
11.72960,347153
11.73587,299866
11.74212,256842
11.74837,221512
11.75463,196241
11.76088,196307
11.76713,214678
11.77340,235008
11.77965,243751
11.78590,257592
11.79217,252163
11.79842,255018
11.80467,255434
11.81093,250438
11.81718,240059
11.82343,258448
11.82970,362888
11.83595,570931
11.84220,750216
11.84847,764424
11.85472,576723
11.86097,384542
11.86723,276281
11.87348,236892
11.87973,255331
11.88600,348800
11.89225,460941
11.89850,520431
11.90477,494340
11.91102,412343
11.91727,319942
11.92352,267666
11.92978,261405
11.93603,332599
11.94228,604333
11.94855,1341461
11.95480,2814503
11.96105,5043223
11.96732,6921233
11.97357,7266429
11.97982,4447893
11.98608,1871066
11.99233,738078
11.99858,479381
12.00485,486055
12.01110,485101
12.01735,458107
12.02362,426316
12.02987,440977
12.03612,550501
12.04238,799998
12.04863,1199325
12.05488,1531931
12.06115,1618556
12.06740,1308782
12.07365,901861
12.07992,601541
12.08617,499810
12.09242,481042
12.09868,472197
12.10493,438236
12.11118,373725
12.11745,309913
12.12370,271820
12.12995,250318
12.13620,246148
12.14247,237977
12.14872,225911
12.15497,210109
12.16123,202127
12.16748,203972
12.17373,210507
12.18000,227811
12.18625,267332
12.19250,333400
12.19877,423284
12.20502,521636
12.21127,638442
12.21753,760806
12.22378,786120
12.23003,688768
12.23630,585119
12.24255,560318
12.24880,713187
12.25507,1087037
12.26132,1627205
12.26757,2220181
12.27383,2518000
12.28008,2344806
12.28633,1695058
12.29260,955736
12.29885,507279
12.30510,311475
12.31137,245067
12.31762,213271
12.32387,190543
12.33013,193985
12.33638,213116
12.34263,260035
12.34888,310656
12.35515,355531
12.36140,369467
12.36765,355820
12.37392,331885
12.38017,347009
12.38642,420388
12.39268,481540
12.39893,451135
12.40518,366998
12.41145,301768
12.41770,263249
12.42395,274732
12.43022,299779
12.43647,346830
12.44272,362039
12.44898,330005
12.45523,284470
12.46148,260228
12.46775,280082
12.47400,374259
12.48025,611063
12.48652,996690
12.49277,1371918
12.49902,1512320
12.50528,1250804
12.51153,782210
12.51778,436705
12.52405,273362
12.53030,240114
12.53655,265940
12.54282,317258
12.54907,357929
12.55532,331689
12.56158,306264
12.56783,363974
12.57408,602413
12.58033,1099340
12.58660,1946937
12.59285,2671127
12.59910,2825842
12.60537,2490478
12.61162,2429571
12.61787,3198247
12.62413,4496246
12.63038,6166980
12.63663,8431478
12.64290,1.114253E+07
12.64915,1.503248E+07
12.65540,2.035791E+07
12.66167,2.714083E+07
12.66792,3.216645E+07
12.67417,3.44347E+07
12.68043,3.281806E+07
12.68668,2.552626E+07
12.69293,1.086807E+07
12.69920,2503416
12.70545,772296
12.71170,654076
12.71797,799331
12.72422,919683
12.73047,978868
12.73673,1045783
12.74298,1139305
12.74923,1103296
12.75550,909801
12.76175,728499
12.76800,568146
12.77427,476646
12.78052,435424
12.78677,418900
12.79302,414674
12.79928,396007
12.80553,355984
12.81178,329162
12.81805,331250
12.82430,358624
12.83055,401841
12.83682,402247
12.84307,380764
12.84932,361113
12.85558,348772
12.86183,346725
12.86808,346413
12.87435,359372
12.88060,392085
12.88685,539599
12.89312,797300
12.89937,1042111
12.90562,1091701
12.91188,1017305
12.91813,851802
12.92438,673572
12.93065,485164
12.93690,357679
12.94315,280970
12.94942,257728
12.95567,245618
12.96192,243568
12.96818,230007
12.97443,221093
12.98068,225949
12.98695,239706
12.99320,266893
12.99945,286288
13.00570,328666
13.01197,369652
13.01822,427065
13.02447,544094
13.03073,710311
13.03698,887974
13.04323,914944
13.04950,707178
13.05575,495390
13.06200,489090
13.06827,819369
13.07452,1632921
13.08077,3018588
13.08703,4284312
13.09328,4490807
13.09953,3284678
13.10580,1740943
13.11205,865818
13.11830,528398
13.12457,404288
13.13082,357100
13.13707,344097
13.14333,341962
13.14958,335561
13.15583,315871
13.16210,309142
13.16835,294249
13.17460,270401
13.18087,249313
13.18712,230375
13.19337,224571
13.19963,217367
13.20588,227457
13.21213,233207
13.21840,244767
13.22465,270170
13.23090,297154
13.23715,339185
13.24342,344755
13.24967,335650
13.25592,335199
13.26218,352927
13.26843,360892
13.27468,348864
13.28095,329571
13.28720,351197
13.29345,426913
13.29972,588885
13.30597,840771
13.31222,1024172
13.31848,981082
13.32473,708230
13.33098,435407
13.33725,323428
13.34350,310443
13.34975,327292
13.35602,333942
13.36227,309975
13.36852,289105
13.37478,268654
13.38103,259433
13.38728,241750
13.39355,230462
13.39980,225112
13.40605,224464
13.41232,234307
13.41857,246611
13.42482,280055
13.43108,316394
13.43733,355387
13.44358,382525
13.44983,368253
13.45610,327310
13.46235,283267
13.46860,264964
13.47487,258634
13.48112,257104
13.48737,264408
13.49363,266291
13.49988,274638
13.50613,278667
13.51240,284730
13.51865,310288
13.52490,330005
13.53117,347488
13.53742,406772
13.54367,560142
13.54993,857470
13.55618,1149176
13.56243,1201004
13.56870,984448
13.57495,687525
13.58120,511578
13.58747,539606
13.59372,713879
13.59997,983874
13.60623,1158807
13.61248,1131077
13.61873,905912
13.62500,692399
13.63125,535156
13.63750,452517
13.64377,391151
13.65002,373216
13.65627,373974
13.66253,364675
13.66878,347434
13.67503,342562
13.68128,361534
13.68755,397580
13.69380,419098
13.70005,425599
13.70632,387114
13.71257,351041
13.71882,324252
13.72508,319207
13.73133,315698
13.73758,324556
13.74385,348064
13.75010,439901
13.75635,710537
13.76262,1185559
13.76887,1549942
13.77512,1501283
13.78138,1072849
13.78763,661463
13.79388,588296
13.80015,942277
13.80640,1925809
13.81265,3693839
13.81892,6724869
13.82517,1.144125E+07
13.83142,1.825714E+07
13.83768,2.417911E+07
13.84393,2.544703E+07
13.85018,1.720329E+07
13.85645,6347646
13.86270,1447960
13.86895,475062
13.87522,365397
13.88147,487687
13.88772,891633
13.89397,1848747
13.90023,3822259
13.90648,7282583
13.91273,1.091984E+07
13.91900,1.273811E+07
13.92525,1.116032E+07
13.93150,5916966
13.93777,2231010
13.94402,650923
13.95027,281282
13.95653,238052
13.96278,237151
13.96903,238220
13.97530,242425
13.98155,239498
13.98780,252456
13.99407,261221
14.00032,278858
14.00657,310345
14.01283,357587
14.01908,372348
14.02533,319072
14.03160,249150
14.03785,202916
14.04410,189480
14.05037,195575
14.05662,212470
14.06287,249009
14.06913,288053
14.07538,300731
14.08163,287633
14.08790,250196
14.09415,216185
14.10040,197121
14.10667,180404
14.11292,177203
14.11917,184765
14.12542,193004
14.13168,196479
14.13793,189877
14.14418,178182
14.15045,175107
14.15670,181908
14.16295,186741
14.16922,182539
14.17547,173503
14.18172,166048
14.18798,163325
14.19423,167659
14.20048,173203
14.20675,189646
14.21300,227859
14.21925,286206
14.22552,374716
14.23177,411607
14.23802,409015
14.24428,338508
14.25053,260202
14.25678,243050
14.26305,308668
14.26930,467263
14.27555,717006
14.28182,846367
14.28807,712057
14.29432,483984
14.30058,348349
14.30683,296959
14.31308,284257
14.31935,324429
14.32560,391008
14.33185,419532
14.33810,390792
14.34437,322545
14.35062,264378
14.35687,232783
14.36313,224614
14.36938,225407
14.37563,236917
14.38190,253688
14.38815,292407
14.39440,368071
14.40067,568267
14.40692,1159719
14.41317,2467947
14.41943,4470385
14.42568,5913193
14.43193,5607985
14.43820,4041476
14.44445,2334275
14.45070,1538130
14.45697,1284948
14.46322,1187667
14.46947,1137073
14.47573,1179038
14.48198,1202793
14.48823,1075960
14.49450,826010
14.50075,551448
14.50700,375755
14.51327,318971
14.51952,329130
14.52577,363453
14.53203,373441
14.53828,350424
14.54453,312821
14.55080,287934
14.55705,278118
14.56330,280441
14.56955,289958
14.57582,286991
14.58207,274112
14.58832,252478
14.59458,237586
14.60083,237382
14.60708,246311
14.61335,253245
14.61960,259932
14.62585,253484
14.63212,286847
14.63837,363451
14.64462,496522
14.65088,591366
14.65713,577717
14.66338,479644
14.66965,403367
14.67590,353420
14.68215,361515
14.68842,425105
14.69467,557712
14.70092,728644
14.70718,811143
14.71343,772059
14.71968,793358
14.72595,1037498
14.73220,1612141
14.73845,2340847
14.74472,2836152
14.75097,2796403
14.75722,2826849
14.76348,2759349
14.76973,2263933
14.77598,1440311
14.78223,715339
14.78850,407139
14.79475,352906
14.80100,427113
14.80727,558588
14.81352,664467
14.81977,618105
14.82603,460482
14.83228,316035
14.83853,231925
14.84480,214001
14.85105,231467
14.85730,276601
14.86357,335913
14.86982,380409
14.87607,363983
14.88233,322682
14.88858,282479
14.89483,257228
14.90110,266974
14.90735,333224
14.91360,477026
14.91987,660050
14.92612,767687
14.93237,747574
14.93863,675382
14.94488,539533
14.95113,455076
14.95740,523756
14.96365,772537
14.96990,1337716
14.97617,2173377
14.98242,2687148
14.98867,2527935
14.99492,1645319
15.00118,859155
15.00743,482342
15.01368,355320
15.01995,318637
15.02620,301155
15.03245,303761
15.03872,318085
15.04497,358347
15.05122,377440
15.05748,401807
15.06373,398732
15.06998,399227
15.07625,381607
15.08250,381135
15.08875,424870
15.09502,478518
15.10127,533607
15.10752,566074
15.11378,623105
15.12003,730386
15.12628,881894
15.13255,1089360
15.13880,1210219
15.14505,1383299
15.15132,1574152
15.15757,2110183
15.16382,3660219
15.17008,6450369
15.17633,9402286
15.18258,8950453
15.18885,5943667
15.19510,2728529
15.20135,1059441
15.20762,524832
15.21387,351726
15.22012,276039
15.22637,239762
15.23263,223466
15.23888,226596
15.24513,244934
15.25140,262969
15.25765,272708
15.26390,286017
15.27017,278473
15.27642,261035
15.28267,243457
15.28893,229337
15.29518,233011
15.30143,238484
15.30770,244565
15.31395,290368
15.32020,351198
15.32647,408603
15.33272,419025
15.33897,356626
15.34523,293217
15.35148,267262
15.35773,291337
15.36400,331123
15.37025,350809
15.37650,316878
15.38277,271489
15.38902,240781
15.39527,214524
15.40153,205640
15.40778,200838
15.41403,205286
15.42030,250447
15.42655,337441
15.43280,452687
15.43905,541019
15.44532,614801
15.45157,697810
15.45782,762404
15.46408,720112
15.47033,601607
15.47658,452988
15.48285,333467
15.48910,264966
15.49535,255553
15.50162,288041
15.50787,399372
15.51412,718622
15.52038,1630675
15.52663,3379657
15.53288,5918468
15.53915,8258762
15.54540,1.078788E+07
15.55165,1.465104E+07
15.55792,1.876237E+07
15.56417,2.012453E+07
15.57042,1.386609E+07
15.57668,4844616
15.58293,1290416
15.58918,583530
15.59545,459924
15.60170,439650
15.60795,437684
15.61422,445488
15.62047,437472
15.62672,422528
15.63298,405440
15.63923,404434
15.64548,365953
15.65173,316389
15.65800,288001
15.66425,278183
15.67050,277773
15.67677,298876
15.68302,317981
15.68927,324673
15.69553,326404
15.70178,319142
15.70803,309488
15.71430,288002
15.72055,276244
15.72680,271074
15.73307,275653
15.73932,273582
15.74557,297555
15.75183,295014
15.75808,276645
15.76433,238897
15.77060,215463
15.77685,191904
15.78310,186995
15.78937,192842
15.79562,202979
15.80187,211916
15.80813,213865
15.81438,215969
15.82063,226483
15.82690,240948
15.83315,297748
15.83940,395182
15.84567,503704
15.85192,557237
15.85817,499165
15.86443,364184
15.87068,276382
15.87693,239103
15.88318,246941
15.88945,256333
15.89570,252034
15.90195,228884
15.90822,212975
15.91447,202291
15.92072,191209
15.92698,190401
15.93323,189289
15.93948,190974
15.94575,185675
15.95200,204258
15.95825,242648
15.96452,288480
15.97077,314170
15.97702,298914
15.98328,240575
15.98953,191776
15.99578,178056
16.00205,190078
16.00830,241828
16.01455,341115
16.02082,490761
16.02707,642532
16.03332,790586
16.03958,1036555
16.04583,1457469
16.05208,1925031
16.05835,1997855
16.06460,1630881
16.07085,1123676
16.07712,959258
16.08337,1193382
16.08962,1545553
16.09587,1567223
16.10213,1368165
16.10838,1257461
16.11463,1658878
16.12090,2576343
16.12715,3421461
16.13340,3492182
16.13967,2489970
16.14592,1357365
16.15217,651501
16.15843,398402
16.16468,342302
16.17093,338897
16.17720,338367
16.18345,335253
16.18970,388193
16.19597,483077
16.20222,522521
16.20847,477889
16.21473,445533
16.22098,650563
16.22723,1367539
16.23350,2591786
16.23975,3629275
16.24600,3355062
16.25227,2222696
16.25852,1106473
16.26477,537231
16.27103,338254
16.27728,282863
16.28353,282894
16.28980,355551
16.29605,574633
16.30230,987159
16.30855,1524770
16.31482,1689866
16.32107,1291627
16.32732,762785
16.33358,419876
16.33983,289093
16.34608,256341
16.35235,251244
16.35860,250503
16.36485,239727
16.37112,227006
16.37737,223729
16.38362,206939
16.38988,198455
16.39613,197269
16.40238,205769
16.40865,211811
16.41490,220948
16.42115,229126
16.42742,272005
16.43367,402360
16.43992,691450
16.44618,1102415
16.45243,1326905
16.45868,1272391
16.46495,1038789
16.47120,779078
16.47745,663740
16.48372,523397
16.48997,453611
16.49622,395965
16.50248,397110
16.50873,438694
16.51498,517742
16.52125,645728
16.52750,726227
16.53375,714385
16.54000,664945
16.54627,604713
16.55252,547809
16.55877,492996
16.56503,445547
16.57128,409046
16.57753,387872
16.58380,388398
16.59005,397108
16.59630,398242
16.60257,395480
16.60882,392548
16.61507,401673
16.62133,426969
16.62758,431018
16.63383,454451
16.64010,484541
16.64635,542703
16.65260,570168
16.65887,524366
16.66512,480932
16.67137,449713
16.67763,449465
16.68388,463892
16.69013,464217
16.69640,447029
16.70265,405637
16.70890,367436
16.71517,340614
16.72142,336111
16.72767,339416
16.73393,355679
16.74018,359107
16.74643,366028
16.75268,382970
16.75895,417275
16.76520,512092
16.77145,720923
16.77772,1014237
16.78397,1250893
16.79022,1509014
16.79648,1905665
16.80273,2840331
16.80898,4108230
16.81525,5461203
16.82150,6927771
16.82775,8913484
16.83402,1.185064E+07
16.84027,1.55567E+07
16.84652,1.688218E+07
16.85278,1.641355E+07
16.85903,1.381217E+07
16.86528,8979560
16.87155,5747543
16.87780,4350499
16.88405,3797160
16.89032,3421877
16.89657,3185840
16.90282,2965574
16.90908,2822704
16.91533,2822808
16.92158,3038584
16.92785,3669278
16.93410,4278562
16.94035,4728169
16.94662,4759247
16.95287,4441924
16.95912,4030671
16.96538,3639547
16.97163,2892682
16.97788,2273702
16.98413,1792899
16.99040,1531332
16.99665,1525670
17.00290,2023482
17.00917,3650214
17.01542,7245145
17.02167,1.327788E+07
17.02793,2.158369E+07
17.03418,2.97307E+07
17.04043,3.66768E+07
17.04670,4.205794E+07
17.05295,4.813402E+07
17.05920,5.198872E+07
17.06547,5.282826E+07
17.07172,5.028386E+07
17.07797,4.728208E+07
17.08423,4.391905E+07
17.09048,4.005456E+07
17.09673,3.755614E+07
17.10300,3.603154E+07
17.10925,3.553947E+07
17.11550,3.540956E+07
17.12177,4.950329E+07
17.12802,1.932299E+07
17.13427,1.446918E+07
17.14053,1.431352E+07
17.14678,1.270694E+07
17.15303,1.370485E+07
17.15930,1.936221E+07
17.16555,3.085897E+07
17.17180,4.220426E+07
17.17807,5.106055E+07
17.18432,5.307749E+07
17.19057,5.186915E+07
17.19682,3.760892E+07
17.20308,1.130686E+07
17.20933,4542897
17.21558,5274484
17.22185,6395353
17.22810,7952949
17.23435,1.080434E+07
17.24062,1.743954E+07
17.24687,2.924081E+07
17.25312,4.36961E+07
17.25938,5.126519E+07
17.26563,5.43214E+07
17.27188,5.393549E+07
17.27815,4.878158E+07
17.28440,2.558759E+07
17.29065,1.146218E+07
17.29692,1.361174E+07
17.30317,1.871863E+07
17.30942,2.085019E+07
17.31568,1.628142E+07
17.32193,8619462
17.32818,3580504
17.33445,1763226
17.34070,1316477
17.34695,1215027
17.35322,1145815
17.35947,1061287
17.36572,1027828
17.37198,980842
17.37823,966869
17.38448,988820
17.39075,1036849
17.39700,1103109
17.40325,1238227
17.40952,1389758
17.41577,1525713
17.42202,1432315
17.42827,1299263
17.43453,1275597
17.44078,1608441
17.44703,2477489
17.45330,3828216
17.45955,4988668
17.46580,4967071
17.47207,3635348
17.47832,2135998
17.48457,1246159
17.49083,919068
17.49708,878343
17.50333,927251
17.50960,1098712
17.51585,1347567
17.52210,1493404
17.52837,1440256
17.53462,1184789
17.54087,946821
17.54713,882709
17.55338,1038779
17.55963,1499013
17.56590,2766817
17.57215,5873066
17.57840,1.206253E+07
17.58467,1.653741E+07
17.59092,1.590551E+07
17.59717,1.105608E+07
17.60343,5214321
17.60968,2138455
17.61593,1442060
17.62220,1549418
17.62845,1627388
17.63470,1491978
17.64095,1138821
17.64722,857935
17.65347,709667
17.65972,652167
17.66598,621977
17.67223,613672
17.67848,622063
17.68475,648269
17.69100,675389
17.69725,701649
17.70352,713804
17.70977,698669
17.71602,632714
17.72228,579564
17.72853,554950
17.73478,558683
17.74105,583528
17.74730,621561
17.75355,646300
17.75982,674097
17.76607,764034
17.77232,923165
17.77858,1171685
17.78483,1626131
17.79108,2350351
17.79735,3536215
17.80360,4900974
17.80985,6389448
17.81612,6908413
17.82237,5775655
17.82862,4245983
17.83488,2825394
17.84113,1992166
17.84738,1597216
17.85365,1501876
17.85990,2474737
17.86615,5595169
17.87240,1.160202E+07
17.87867,1.736315E+07
17.88492,2.033386E+07
17.89117,1.525546E+07
17.89743,7756638
17.90368,2870322
17.90993,1188052
17.91620,806594
17.92245,701367
17.92870,664485
17.93497,638502
17.94122,604162
17.94747,590064
17.95373,611513
17.95998,632376
17.96623,654451
17.97250,652912
17.97875,662049
17.98500,697101
17.99127,771453
17.99752,894732
18.00377,1041089
18.01003,1159300
18.01628,1187188
18.02253,1020892
18.02880,818023
18.03505,679525
18.04130,601181
18.04757,575291
18.05382,537022
18.06007,494155
18.06633,464447
18.07258,450209
18.07883,451094
18.08508,480417
18.09135,547421
18.09760,616580
18.10385,636849
18.11012,621150
18.11637,623125
18.12262,761219
18.12888,1248365
18.13513,2428574
18.14138,4324996
18.14765,5559084
18.15390,5015976
18.16015,3271388
18.16642,1560845
18.17267,792373
18.17892,575140
18.18518,495081
18.19143,454678
18.19768,424745
18.20395,451000
18.21020,509641
18.21645,605126
18.22272,636974
18.22897,618362
18.23522,523561
18.24148,461125
18.24773,435875
18.25398,439286
18.26025,466222
18.26650,526725
18.27275,603765
18.27902,725892
18.28527,963343
18.29152,1536174
18.29777,2344496
18.30403,3015876
18.31028,2813922
18.31653,2095371
18.32280,1314664
18.32905,805341
18.33530,533455
18.34157,405435
18.34782,364749
18.35407,365806
18.36033,371175
18.36658,372403
18.37283,384662
18.37910,415311
18.38535,485389
18.39160,567536
18.39787,576638
18.40412,540285
18.41037,502908
18.41663,487239
18.42288,455520
18.42913,416550
18.43540,379237
18.44165,359108
18.44790,342135
18.45417,340221
18.46042,343908
18.46667,342910
18.47293,346180
18.47918,342687
18.48543,323646
18.49170,307354
18.49795,302143
18.50420,305255
18.51047,316332
18.51672,313435
18.52297,323207
18.52922,320857
18.53548,323990
18.54173,329544
18.54798,336826
18.55425,340028
18.56050,342116
18.56675,348823
18.57302,332751
18.57927,328080
18.58552,310652
18.59178,316635
18.59803,332626
18.60428,376592
18.61055,440836
18.61680,487359
18.62305,466200
18.62932,424355
18.63557,388973
18.64182,373562
18.64808,369964
18.65433,349361
18.66058,338452
18.66685,333175
18.67310,339265
18.67935,336781
18.68562,319898
18.69187,310084
18.69812,334006
18.70438,378947
18.71063,441302
18.71688,469064
18.72315,453982
18.72940,399063
18.73565,343442
18.74190,315585
18.74817,312565
18.75442,309022
18.76067,311403
18.76693,302871
18.77318,291085
18.77943,299587
18.78570,293012
18.79195,286338
18.79820,281837
18.80447,292608
18.81072,300999
18.81697,307545
18.82323,312020
18.82948,300135
18.83573,299152
18.84200,292548
18.84825,285854
18.85450,307060
18.86077,390358
18.86702,628313
18.87327,1338238
18.87953,3379219
18.88578,7711969
18.89203,1.576772E+07
18.89830,2.291529E+07
18.90455,2.569362E+07
18.91080,2.020555E+07
18.91707,1.070321E+07
18.92332,3851209
18.92957,1259495
18.93583,613537
18.94208,518278
18.94833,480983
18.95458,416394
18.96085,351970
18.96710,301368
18.97335,283284
18.97962,272029
18.98587,269703
18.99212,279672
18.99838,292140
19.00463,307307
19.01088,318169
19.01715,314513
19.02340,313324
19.02965,300478
19.03592,305983
19.04217,331259
19.04842,353242
19.05468,346769
19.06093,315609
19.06718,295493
19.07345,288643
19.07970,292860
19.08595,319277
19.09222,340074
19.09847,355221
19.10472,359136
19.11098,347192
19.11723,338188
19.12348,338633
19.12975,346758
19.13600,362821
19.14225,359824
19.14852,341661
19.15477,315542
19.16102,291457
19.16728,282941
19.17353,263533
19.17978,263179
19.18603,267208
19.19230,274749
19.19855,281241
19.20480,276386
19.21107,270191
19.21732,268224
19.22357,256867
19.22983,252966
19.23608,245847
19.24233,242579
19.24860,244056
19.25485,240725
19.26110,233589
19.26737,225035
19.27362,231139
19.27987,236943
19.28613,241045
19.29238,247635
19.29863,252469
19.30490,248966
19.31115,234271
19.31740,224502
19.32367,218750
19.32992,225413
19.33617,244583
19.34243,268910
19.34868,297767
19.35493,319259
19.36120,315450
19.36745,299350
19.37370,289094
19.37997,280620
19.38622,286658
19.39247,303926
19.39872,334396
19.40498,354651
19.41123,332562
19.41748,309580
19.42375,278928
19.43000,265457
19.43625,253259
19.44252,265132
19.44877,264543
19.45502,262913
19.46128,251396
19.46753,246001
19.47378,236461
19.48005,237068
19.48630,243526
19.49255,259289
19.49882,267408
19.50507,291205
19.51132,298955
19.51758,307484
19.52383,308057
19.53008,305689
19.53635,294081
19.54260,308505
19.54885,338650
19.55512,360425
19.56137,363934
19.56762,332940
19.57388,295898
19.58013,261515
19.58638,243885
19.59265,239509
19.59890,236479
19.60515,231924
19.61142,232283
19.61767,227206
19.62392,234789
19.63017,257019
19.63643,269302
19.64268,280535
19.64893,273694
19.65520,270867
19.66145,281234
19.66770,317858
19.67397,386142
19.68022,433391
19.68647,447916
19.69273,417692
19.69898,382791
19.70523,380123
19.71150,385444
19.71775,373018
19.72400,340431
19.73027,317867
19.73652,309495
19.74277,307044
19.74903,300564
19.75528,286225
19.76153,274000
19.76780,285510
19.77405,291881
19.78030,289318
19.78657,290968
19.79282,300950
19.79907,321653
19.80533,330012
19.81158,317980
19.81783,282344
19.82410,255401
19.83035,229947
19.83660,226729
19.84285,229501
19.84912,244197
19.85537,268766
19.86162,305554
19.86788,327235
19.87413,324309
19.88038,294304
19.88665,278039
19.89290,283712
19.89915,372272
19.90542,755882
19.91167,1877325
19.91792,4170233
19.92418,6565525
19.93043,7183722
19.93668,5570453
19.94295,3153666
19.94920,1227908
19.95545,539169
19.96172,409915
19.96797,466096
19.97422,575531
19.98048,648550
19.98673,684865
19.99298,578329
19.99925,465827
20.00550,363292
20.01175,315072
20.01802,296858
20.02427,290677
20.03052,275120
20.03678,275315
20.04303,288156
20.04928,310000
20.05555,307534
20.06180,300561
20.06805,279566
20.07430,256779
20.08057,250889
20.08682,255400
20.09307,272326
20.09933,294511
20.10558,276556
20.11183,261742
20.11810,242915
20.12435,236353
20.13060,231193
20.13687,234334
20.14312,236038
20.14937,239839
20.15563,241954
20.16188,246376
20.16813,246301
20.17440,243373
20.18065,240268
20.18690,248689
20.19317,263142
20.19942,285521
20.20567,314702
20.21193,376791
20.21818,443437
20.22443,506992
20.23070,553149
20.23695,529848
20.24320,450381
20.24947,367040
20.25572,305886
20.26197,271825
20.26823,258019
20.27448,252553
20.28073,262742
20.28698,329205
20.29325,505677
20.29950,771921
20.30575,980966
20.31202,1020450
20.31827,813676
20.32452,551343
20.33078,373267
20.33703,310146
20.34328,299365
20.34955,309831
20.35580,310687
20.36205,292451
20.36832,278131
20.37457,262570
20.38082,262188
20.38708,257476
20.39333,255545
20.39958,251464
20.40585,256111
20.41210,280093
20.41835,324071
20.42462,452039
20.43087,740493
20.43712,1188135
20.44338,1622902
20.44963,1675422
20.45588,1291129
20.46215,803579
20.46840,541532
20.47465,520070
20.48092,616057
20.48717,707720
20.49342,684078
20.49968,562920
20.50593,431684
20.51218,346768
20.51843,323474
20.52470,314198
20.53095,311595
20.53720,324989
20.54347,363241
20.54972,437701
20.55597,489754
20.56223,479155
20.56848,423321
20.57473,369921
20.58100,361735
20.58725,395388
20.59350,451718
20.59977,472646
20.60602,469909
20.61227,440497
20.61853,398012
20.62478,333046
20.63103,281169
20.63730,259128
20.64355,261148
20.64980,267938
20.65607,275351
20.66232,289428
20.66857,293174
20.67483,290553
20.68108,278883
20.68733,277094
20.69360,267866
20.69985,277600
20.70610,343037
20.71237,505216
20.71862,750034
20.72487,980359
20.73112,1060345
20.73738,880334
20.74363,623581
20.74988,472558
20.75615,483116
20.76240,591249
20.76865,796480
20.77492,893558
20.78117,807615
20.78742,634403
20.79368,470185
20.79993,402147
20.80618,353136
20.81245,322112
20.81870,296905
20.82495,294232
20.83122,306987
20.83747,334968
20.84372,346844
20.84998,346875
20.85623,333776
20.86248,323754
20.86875,309010
20.87500,302682
20.88125,304189
20.88752,328194
20.89377,343708
20.90002,345682
20.90628,364786
20.91253,386163
20.91878,377040
20.92505,405492
20.93130,477769
20.93755,702924
20.94380,995914
20.95007,1214903
20.95632,1148312
20.96257,904497
20.96883,698651
20.97508,569820
20.98133,511188
20.98760,420655
20.99385,394034
21.00010,475887
21.00637,669842
21.01262,900902
21.01887,982851
21.02513,873562
21.03138,652089
21.03763,492866
21.04390,404652
21.05015,365559
21.05640,349632
21.06267,331285
21.06892,342043
21.07517,356234
21.08143,373429
21.08768,352280
21.09393,322371
21.10020,301402
21.10645,278878
21.11270,274791
21.11897,279787
21.12522,281596
21.13147,272575
21.13773,267811
21.14398,260760
21.15023,258517
21.15650,267498
21.16275,281513
21.16900,300766
21.17525,315315
21.18152,313202
21.18777,305826
21.19402,291058
21.20028,288924
21.20653,299527
21.21278,304701
21.21905,311456
21.22530,296925
21.23155,294688
21.23782,303628
21.24407,319019
21.25032,323583
21.25658,312902
21.26283,291515
21.26908,290065
21.27535,320502
21.28160,374366
21.28785,407432
21.29412,406591
21.30037,359937
21.30662,321952
21.31288,301252
21.31913,303825
21.32538,337816
21.33165,346703
21.33790,333992
21.34415,316559
21.35042,301800
21.35667,320128
21.36292,366100
21.36918,421064
21.37543,425886
21.38168,400384
21.38793,343463
21.39420,297929
21.40045,283675
21.40670,289466
21.41297,310473
21.41922,341099
21.42547,371213
21.43173,365364
21.43798,354525
21.44423,339493
21.45050,371557
21.45675,450882
21.46300,523115
21.46927,572761
21.47552,518354
21.48177,442103
21.48803,381598
21.49428,370819
21.50053,370380
21.50680,353439
21.51305,324031
21.51930,287499
21.52557,259908
21.53182,252564
21.53807,256474
21.54433,254849
21.55058,249098
21.55683,248378
21.56310,260373
21.56935,280906
21.57560,309860
21.58187,324201
21.58812,331692
21.59437,368844
21.60062,393907
21.60688,360832
21.61313,310687
21.61938,257545
21.62565,234005
21.63190,219986
21.63815,204732
21.64442,201175
21.65067,194205
21.65692,203303
21.66318,207000
21.66943,217382
21.67568,231518
21.68195,246692
21.68820,245871
21.69445,237903
21.70072,223348
21.70697,208650
21.71322,195646
21.71948,202349
21.72573,214397
21.73198,213025
21.73825,214567
21.74450,216450
21.75075,224098
21.75702,229401
21.76327,228992
21.76952,233674
21.77578,237675
21.78203,254724
21.78828,280866
21.79455,306999
21.80080,311498
21.80705,314812
21.81332,309584
21.81957,303117
21.82582,284169
21.83207,270519
21.83833,258209
21.84458,260085
21.85083,281731
21.85710,310774
21.86335,356962
21.86960,393108
21.87587,379950
21.88212,332139
21.88837,279167
21.89463,266981
21.90088,274816
21.90713,314234
21.91340,329915
21.91965,318481
21.92590,283310
21.93217,262118
21.93842,252258
21.94467,251357
21.95093,237160
21.95718,224782
21.96343,224292
21.96970,235907
21.97595,257841
21.98220,277430
21.98847,286888
21.99472,278939
22.00097,267760
22.00723,259515
22.01348,259505
22.01973,260677
22.02600,254006
22.03225,254184
22.03850,271292
22.04475,286728
22.05102,299526
22.05727,332663
22.06352,352601
22.06978,372381
22.07603,366217
22.08228,350271
22.08855,323855
22.09480,302541
22.10105,302743
22.10732,290965
22.11357,285580
22.11982,291182
22.12608,282999
22.13233,285512
22.13858,270293
22.14485,255116
22.15110,252374
22.15735,253213
22.16362,265167
22.16987,259627
22.17612,263883
22.18238,264929
22.18863,264897
22.19488,268884
22.20115,258021
22.20740,243915
22.21365,238623
22.21992,239555
22.22617,244436
22.23242,258496
22.23868,289630
22.24493,349894
22.25118,427413
22.25743,501152
22.26370,535558
22.26995,499354
22.27620,433964
22.28247,393953
22.28872,392591
22.29497,390175
22.30123,379411
22.30748,350931
22.31373,318796
22.32000,304523
22.32625,292262
22.33250,298174
22.33877,302905
22.34502,355366
22.35127,550365
22.35753,965259
22.36378,1469669
22.37003,1715441
22.37630,1497972
22.38255,914969
22.38880,551347
22.39507,356007
22.40132,289755
22.40757,283327
22.41383,279215
22.42008,289735
22.42633,305962
22.43260,335202
22.43885,379499
22.44510,442593
22.45137,530896
22.45762,650444
22.46387,739152
22.47013,678471
22.47638,545217
22.48263,422839
22.48888,368259
22.49515,341071
22.50140,316125
22.50765,305195
22.51392,288700
22.52017,281730
22.52642,301862
22.53268,395475
22.53893,575306
22.54518,789703
22.55145,916698
22.55770,881079
22.56395,695528
22.57022,536366
22.57647,414356
22.58272,361102
22.58898,332459
22.59523,319148
22.60148,296467
22.60775,279637
22.61400,273575
22.62025,268010
22.62652,271928
22.63277,272011
22.63902,275862
22.64528,281837
22.65153,285522
22.65778,290822
22.66405,309359
22.67030,338996
22.67655,376884
22.68282,407472
22.68907,396215
22.69532,354720
22.70157,311075
22.70783,285313
22.71408,275182
22.72033,267640
22.72660,265483
22.73285,268815
22.73910,275591
22.74537,286260
22.75162,301130
22.75787,303324
22.76413,319099
22.77038,367475
22.77663,484009
22.78290,1077374
22.78915,2918976
22.79540,7512294
22.80167,1.460639E+07
22.80792,2.169467E+07
22.81417,2.476958E+07
22.82043,2.006507E+07
22.82668,1.021347E+07
22.83293,3574483
22.83920,1200687
22.84545,615230
22.85170,465891
22.85797,419757
22.86422,392214
22.87047,371960
22.87673,352109
22.88298,335202
22.88923,320351
22.89550,306799
22.90175,303079
22.90800,307663
22.91427,306742
22.92052,310905
22.92677,321257
22.93302,324041
22.93928,337471
22.94553,334335
22.95178,322594
22.95805,310076
22.96430,330057
22.97055,385576
22.97682,452698
22.98307,527055
22.98932,521098
22.99558,482208
23.00183,409575
23.00808,331751
23.01435,300982
23.02060,281957
23.02685,276073
23.03312,278098
23.03937,283138
23.04562,290187
23.05188,309955
23.05813,336205
23.06438,409930
23.07065,515770
23.07690,604402
23.08315,617469
23.08942,531056
23.09567,430566
23.10192,342777
23.10818,297938
23.11443,276465
23.12068,267200
23.12695,254529
23.13320,257605
23.13945,252101
23.14570,246335
23.15197,246381
23.15822,243658
23.16447,239108
23.17073,237392
23.17698,242988
23.18323,246028
23.18950,249899
23.19575,257123
23.20200,262735
23.20827,264566
23.21452,258594
23.22077,249591
23.22703,247253
23.23328,244144
23.23953,246015
23.24580,251571
23.25205,249179
23.25830,255224
23.26457,253091
23.27082,246234
23.27707,245611
23.28333,247826
23.28958,261024
23.29583,294548
23.30210,355104
23.30835,473557
23.31460,587865
23.32087,616734
23.32712,529581
23.33337,420394
23.33963,339777
23.34588,297039
23.35213,280527
23.35840,265259
23.36465,265685
23.37090,264329
23.37715,272371
23.38342,275333
23.38967,281393
23.39592,281198
23.40218,279961
23.40843,264800
23.41468,257955
23.42095,263557
23.42720,254145
23.43345,261814
23.43972,281338
23.44597,296636
23.45222,315969
23.45848,329866
23.46473,346224
23.47098,367345
23.47725,382505
23.48350,408432
23.48975,424538
23.49602,441846
23.50227,508618
23.50852,611831
23.51478,738553
23.52103,843942
23.52728,792222
23.53355,607893
23.53980,455385
23.54605,377920
23.55232,370686
23.55857,393017
23.56482,467885
23.57108,580134
23.57733,695588
23.58358,747839
23.58983,719406
23.59610,634576
23.60235,522642
23.60860,442806
23.61487,389698
23.62112,355075
23.62737,344752
23.63363,346724
23.63988,350894
23.64613,354097
23.65240,346837
23.65865,323891
23.66490,304977
23.67117,291769
23.67742,301569
23.68367,319951
23.68993,331638
23.69618,330937
23.70243,339504
23.70870,359926
23.71495,412605
23.72120,511821
23.72747,605405
23.73372,629625
23.73997,574284
23.74623,464000
23.75248,380062
23.75873,342176
23.76500,318162
23.77125,317782
23.77750,312065
23.78377,319736
23.79002,319188
23.79627,328688
23.80253,338322
23.80878,353800
23.81503,390841
23.82128,416846
23.82755,420749
23.83380,379630
23.84005,354746
23.84632,346880
23.85257,342871
23.85882,334286
23.86508,341848
23.87133,347887
23.87758,382707
23.88385,412391
23.89010,448812
23.89635,454513
23.90262,431128
23.90887,397105
23.91512,378159
23.92138,373079
23.92763,362493
23.93388,364307
23.94015,387105
23.94640,473416
23.95265,850569
23.95892,1975876
23.96517,4216250
23.97142,7582437
23.97768,1.248872E+07
23.98393,1.81926E+07
23.99018,2.742283E+07
23.99645,3.479325E+07
24.00270,3.684589E+07
24.00895,3.101337E+07
24.01522,1.992693E+07
24.02147,8836411
24.02772,3525243
24.03397,1801058
24.04023,1249158
24.04648,994871
24.05273,827722
24.05900,756388
24.06525,721164
24.07150,730779
24.07777,731480
24.08402,736314
24.09027,855512
24.09653,1467062
24.10278,3019569
24.10903,5644918
24.11530,7995437
24.12155,8523505
24.12780,7096235
24.13407,4555639
24.14032,2476166
24.14657,1316697
24.15283,860070
24.15908,678218
24.16533,645799
24.17160,681458
24.17785,793814
24.18410,1029341
24.19037,1487532
24.19662,2467713
24.20287,4915843
24.20913,9924685
24.21538,1.809024E+07
24.22163,2.777708E+07
24.22790,3.62428E+07
24.23415,4.215964E+07
24.24040,4.541252E+07
24.24665,4.646294E+07
24.25292,4.615731E+07
24.25917,4.498689E+07
24.26542,4.357346E+07
24.27168,4.29313E+07
24.27793,4.010366E+07
24.28418,1.188715E+07
24.29045,4413407
24.29670,3308135
24.30295,2819980
24.30922,2556010
24.31547,2391347
24.32172,2325288
24.32798,2279517
24.33423,2298295
24.34048,2398711
24.34675,2415404
24.35300,2480299
24.35925,2510995
24.36552,2575401
24.37177,2714227
24.37802,2690951
24.38428,2593892
24.39053,2373364
24.39678,2200668
24.40305,2092060
24.40930,1972559
24.41555,1918256
24.42182,1924738
24.42807,2064121
24.43432,2428397
24.44058,2739087
24.44683,2748228
24.45308,2485526
24.45933,1967136
24.46560,1528533
24.47185,1334966
24.47810,1201808
24.48437,1126220
24.49062,1083378
24.49687,1069093
24.50313,1043510
24.50938,996715
24.51563,992403
24.52190,946638
24.52815,909590
24.53440,878841
24.54067,868144
24.54692,825317
24.55317,799409
24.55943,761746
24.56568,745581
24.57193,758878
24.57820,748090
24.58445,762691
24.59070,727992
24.59697,682903
24.60322,626329
24.60947,584452
24.61573,554147
24.62198,528653
24.62823,510218
24.63450,505959
24.64075,482092
24.64700,473242
24.65327,451290
24.65952,434423
24.66577,420543
24.67203,422651
24.67828,427713
24.68453,455849
24.69078,459035
24.69705,452573
24.70330,473332
24.70955,467236
24.71582,454441
24.72207,438776
24.72832,411334
24.73458,391982
24.74083,358901
24.74708,349170
24.75335,347886
24.75960,353144
24.76585,369926
24.77212,378228
24.77837,378486
24.78462,369262
24.79088,352636
24.79713,331627
24.80338,308822
24.80965,300322
24.81590,293246
24.82215,287970
24.82842,282176
24.83467,278264
24.84092,273474
24.84718,268891
24.85343,263772
24.85968,267424
24.86595,282034
24.87220,296804
24.87845,316551
24.88472,364300
24.89097,392826
24.89722,398305
24.90347,374191
24.90973,345898
24.91598,358863
24.92223,377267
24.92850,387860
24.93475,424061
24.94100,536100
24.94727,748891
24.95352,964142
24.95977,1043476
24.96603,861615
24.97228,609222
24.97853,450370
24.98480,373187
24.99105,340267
24.99730,319768
25.00357,306772
25.00982,307144
25.01607,302559
25.02233,307962
25.02858,312181
25.03483,311802
25.04110,315092
25.04735,305425
25.05360,293348
25.05987,283144
25.06612,278044
25.07237,276034
25.07863,278785
25.08488,273887
25.09113,272012
25.09740,274951
25.10365,272500
25.10990,280429
25.11615,288821
25.12242,305040
25.12867,326508
25.13492,343044
25.14118,339995
25.14743,308471
25.15368,277438
25.15995,251379
25.16620,252798
25.17245,275559
25.17872,308213
25.18497,357740
25.19122,387544
25.19748,376380
25.20373,328787
25.20998,272193
25.21625,244144
25.22250,232508
25.22875,222924
25.23502,223345
25.24127,220740
25.24752,225287
25.25378,216175
25.26003,222819
25.26628,226069
25.27255,235604
25.27880,277788
25.28505,354809
25.29132,430879
25.29757,478808
25.30382,446109
25.31008,368828
25.31633,312927
25.32258,274301
25.32885,252249
25.33510,246597
25.34135,235228
25.34760,231201
25.35387,230920
25.36012,226706
25.36637,232946
25.37263,230352
25.37888,231314
25.38513,236381
25.39140,242848
25.39765,269840
25.40390,290895
25.41017,297871
25.41642,286821
25.42267,276597
25.42893,264939
25.43518,261500
25.44143,258001
25.44770,247846
25.45395,245675
25.46020,241426
25.46647,230551
25.47272,231567
25.47897,250790
25.48523,272483
25.49148,327272
25.49773,395934
25.50400,434484
25.51025,424794
25.51650,399338
25.52277,381297
25.52902,432858
25.53527,571825
25.54153,741022
25.54778,777238
25.55403,645038
25.56028,464890
25.56655,332099
25.57280,267756
25.57905,238651
25.58532,226717
25.59157,237338
25.59782,236365
25.60408,238671
25.61033,243225
25.61658,233539
25.62285,226554
25.62910,220431
25.63535,215594
25.64162,206190
25.64787,204750
25.65412,202961
25.66038,200283
25.66663,197788
25.67288,205230
25.67915,207540
25.68540,205644
25.69165,203903
25.69792,211695
25.70417,203487
25.71042,197708
25.71668,196275
25.72293,195335
25.72918,195313
25.73545,204734
25.74170,209641
25.74795,210949
25.75422,205965
25.76047,205010
25.76672,203021
25.77298,198460
25.77923,197152
25.78548,195219
25.79173,193157
25.79800,189612
25.80425,182406
25.81050,187672
25.81677,186107
25.82302,192154
25.82927,182378
25.83553,183250
25.84178,180988
25.84803,189261
25.85430,190454
25.86055,192928
25.86680,190078
25.87307,185837
25.87932,189088
25.88557,188281
25.89183,186719
25.89808,184988
25.90433,182477
25.91060,186241
25.91685,191109
25.92310,188396
25.92937,194682
25.93562,194609
25.94187,191744
25.94813,190153
25.95438,191529
25.96063,188302
25.96690,198173
25.97315,204358
25.97940,201918
25.98567,210189
25.99192,204548
25.99817,194186
26.00442,191382
26.01068,191314
26.01693,189728
26.02318,189785
26.02945,194940
26.03570,196963
26.04195,197325
26.04822,198295
26.05447,199681
26.06072,198929
26.06698,193027
26.07323,188941
26.07948,189736
26.08575,185498
26.09200,184920
26.09825,187218
26.10452,182753
26.11077,184858
26.11702,184841
26.12328,186523
26.12953,187536
26.13578,179787
26.14205,180700
26.14830,184780
26.15455,181664
26.16082,181733
26.16707,186809
26.17332,190881
26.17958,191492
26.18583,194697
26.19208,185083
26.19835,188863
26.20460,184281
26.21085,186709
26.21712,187722
26.22337,185774
26.22962,179845
26.23587,185890
26.24213,178593
26.24838,182874
26.25463,181558
26.26090,182819
26.26715,181936
26.27340,185085
26.27967,184205
26.28592,187335
26.29217,185962
26.29843,186804
26.30468,192747
26.31093,188782
26.31720,185010
26.32345,187851
26.32970,192497
26.33597,186206
26.34222,193023
26.34847,194576
26.35473,208240
26.36098,237859
26.36723,310121
26.37350,421702
26.37975,500167
26.38600,512767
26.39227,429088
26.39852,333616
26.40477,258418
26.41103,223925
26.41728,218265
26.42353,215180
26.42980,209796
26.43605,208911
26.44230,202166
26.44855,198930
26.45482,203207
26.46107,210684
26.46732,205515
26.47358,209448
26.47983,213965
26.48608,214707
26.49235,210498
26.49860,211871
26.50485,210313
26.51112,207722
26.51737,215488
26.52362,225166
26.52988,241557
26.53613,248046
26.54238,245306
26.54865,223275
26.55490,211356
26.56115,212337
26.56742,208512
26.57367,204927
26.57992,204890
26.58618,203096
26.59243,209007
26.59868,219149
26.60495,223403
26.61120,230724
26.61745,233449
26.62372,228013
26.62997,223823
26.63622,214277
26.64248,213353
26.64873,217981
26.65498,237023
26.66123,270427
26.66750,287116
26.67375,290752
26.68000,289334
26.68627,283173
26.69252,294066
26.69877,326004
26.70503,333838
26.71128,316263
26.71753,276283
26.72380,248147
26.73005,227035
26.73630,230101
26.74257,234320
26.74882,264187
26.75507,331907
26.76133,449797
26.76758,561231
26.77383,555158
26.78010,489111
26.78635,427444
26.79260,403260
26.79887,396784
26.80512,371885
26.81137,358408
26.81763,368395
26.82388,462018
26.83013,654563
26.83640,852506
26.84265,871254
26.84890,698701
26.85517,524367
26.86142,389137
26.86767,325951
26.87393,337442
26.88018,395375
26.88643,485708
26.89268,645272
26.89895,983668
26.90520,2156940
26.91145,4718155
26.91772,9693651
26.92397,1.641626E+07
26.93022,2.450075E+07
26.93648,3.154092E+07
26.94273,3.196801E+07
26.94898,2.381732E+07
26.95525,1.045591E+07
26.96150,4144154
26.96775,2255930
26.97402,1409171
26.98027,900128
26.98652,632069
26.99278,507596
26.99903,481408
27.00528,562399
27.01155,786929
27.01780,1154816
27.02405,1522884
27.03032,1540679
27.03657,1166886
27.04282,807372
27.04908,586074
27.05533,502102
27.06158,459080
27.06785,443601
27.07410,408453
27.08035,374102
27.08662,352188
27.09287,339135
27.09912,323656
27.10537,314478
27.11163,312490
27.11788,342033
27.12413,392009
27.13040,491098
27.13665,574284
27.14290,587605
27.14917,518151
27.15542,429017
27.16167,369980
27.16793,339700
27.17418,338812
27.18043,331699
27.18670,324383
27.19295,316123
27.19920,311221
27.20547,319806
27.21172,325939
27.21797,325250
27.22423,317746
27.23048,318577
27.23673,310448
27.24300,326500
27.24925,330530
27.25550,333533
27.26177,320479
27.26802,311045
27.27427,297133
27.28053,300383
27.28678,292279
27.29303,297430
27.29930,288491
27.30555,294566
27.31180,293307
27.31805,294165
27.32432,287456
27.33057,286127
27.33682,283776
27.34308,289386
27.34933,289538
27.35558,303305
27.36185,296895
27.36810,297626
27.37435,299294
27.38062,298312
27.38687,296935
27.39312,325837
27.39938,340262
27.40563,371837
27.41188,380912
27.41815,379069
27.42440,348612
27.43065,331187
27.43692,310521
27.44317,302316
27.44942,296665
27.45568,284352
27.46193,272506
27.46818,275142
27.47445,282582
27.48070,279940
27.48695,281024
27.49322,289054
27.49947,282464
27.50572,278768
27.51198,279089
27.51823,279616
27.52448,271047
27.53075,282612
27.53700,278563
27.54325,279226
27.54950,279996
27.55577,277228
27.56202,280668
27.56827,273132
27.57453,270811
27.58078,271072
27.58703,282120
27.59330,283258
27.59955,282153
27.60580,273210
27.61207,275948
27.61832,288250
27.62457,275676
27.63083,282876
27.63708,272967
27.64333,285534
27.64960,286346
27.65585,277310
27.66210,279758
27.66837,285928
27.67462,295610
27.68087,305586
27.68713,300634
27.69338,298216
27.69963,287431
27.70590,295041
27.71215,306446
27.71840,306458
27.72467,304121
27.73092,315554
27.73717,299924
27.74343,295593
27.74968,310087
27.75593,314873
27.76218,310857
27.76845,310697
27.77470,308890
27.78095,306850
27.78722,297525
27.79347,296162
27.79972,297183
27.80598,290027
27.81223,286724
27.81848,297952
27.82475,288081
27.83100,302417
27.83725,293750
27.84352,302072
27.84977,327233
27.85602,347598
27.86228,349659
27.86853,351240
27.87478,337423
27.88105,335571
27.88730,318568
27.89355,319314
27.89982,303481
27.90607,302483
27.91232,309759
27.91858,296950
27.92483,312023
27.93108,296628
27.93735,302099
27.94360,308864
27.94985,311785
27.95612,301298
27.96237,307146
27.96862,309039
27.97488,309174
27.98113,315031
27.98738,326489
27.99363,331076
27.99990,323421
28.00615,325171
28.01240,317608
28.01867,314230
28.02492,314110
28.03117,315040
28.03743,315315
28.04368,313169
28.04993,321267
28.05620,315067
28.06245,316034
28.06870,313659
28.07497,303154
28.08122,302904
28.08747,303058
28.09373,316442
28.09998,315770
28.10623,309570
28.11250,311509
28.11875,324811
28.12500,310527
28.13127,305777
28.13752,309220
28.14377,322912
28.15003,312570
28.15628,318432
28.16253,314047
28.16880,323266
28.17505,311548
28.18130,311977
28.18757,318916
28.19382,310528
28.20007,311638
28.20632,308418
28.21258,316662
28.21883,330057
28.22508,319082
28.23135,320175
28.23760,331535
28.24385,337050
28.25012,321805
28.25637,336869
28.26262,328917
28.26888,337742
28.27513,343479
28.28138,354845
28.28765,350388
28.29390,357488
28.30015,371220
28.30642,366098
28.31267,364367
28.31892,385291
28.32518,387949
28.33143,399213
28.33768,396877
28.34395,406502
28.35020,416499
28.35645,410638
28.36272,420522
28.36897,430224
28.37522,422628
28.38148,415388
28.38773,434359
28.39398,429485
28.40025,425796
28.40650,410903
28.41275,413352
28.41902,401305
28.42527,405302
28.43152,381671
28.43777,388721
28.44403,383764
28.45028,377916
28.45653,377023
28.46280,369109
28.46905,367350
28.47530,362735
28.48157,346777
28.48782,352984
28.49407,349096
28.50033,351861
28.50658,353094
28.51283,337554
28.51910,345472
28.52535,338858
28.53160,328521
28.53787,340571
28.54412,329802
28.55037,341987
28.55663,324102
28.56288,333815
28.56913,336203
28.57540,320423
28.58165,327748
28.58790,328615
28.59417,325081
28.60042,320601
28.60667,328256
28.61293,325328
28.61918,320855
28.62543,316134
28.63170,333908
28.63795,321409
28.64420,322948
28.65045,329664
28.65672,332761
28.66297,319740
28.66922,318298
28.67548,318060
28.68173,319563
28.68798,333147
28.69425,322205
28.70050,318050
28.70675,332419
28.71302,327389
28.71927,334771
28.72552,329806
28.73178,320676
28.73803,323388
28.74428,317654
28.75055,310923
28.75680,319464
28.76305,314886
28.76932,312056
28.77557,313807
28.78182,314865
28.78808,319998
28.79433,322035
28.80058,324736
28.80685,311704
28.81310,317902
28.81935,313992
28.82562,311157
28.83187,320728
28.83812,325940
28.84438,319932
28.85063,324168
28.85688,309775
28.86315,320097
28.86940,319548
28.87565,323853
28.88190,322862
28.88817,318621
28.89442,320766
28.90067,324476
28.90693,322027
28.91318,304695
28.91943,308806
28.92570,305353
28.93195,312774
28.93820,311177
28.94447,307767
28.95072,305238
28.95697,312970
28.96323,314651
28.96948,309547
28.97573,316332
28.98200,303321
28.98825,319679
28.99450,318429
29.00077,303935
29.00702,320057
29.01327,311998
29.01953,310886
29.02578,310458
29.03203,306008
29.03830,310594
29.04455,314924
29.05080,313460
29.05707,306879
29.06332,312530
29.06957,301234
29.07583,304627
29.08208,302186
29.08833,317015
29.09458,314315
29.10085,300806
29.10710,314832
29.11335,303897
29.11962,313624
29.12587,312726
29.13212,315581
29.13838,299861
29.14463,312030
29.15088,314090
29.15715,301279
29.16340,304222
29.16965,312082
29.17592,311782
29.18217,301142
29.18842,316213
29.19468,310282
29.20093,311561
29.20718,308245
29.21345,318198
29.21970,324668
29.22595,323112
29.23222,325299
29.23847,332075
29.24472,340378
29.25098,326812
29.25723,321303
29.26348,317626
29.26975,308533
29.27600,307814
29.28225,315552
29.28852,307562
29.29477,319351
29.30102,311514
29.30727,314555
29.31353,314108
29.31978,300318
29.32603,311926
29.33230,315562
29.33855,312269
29.34480,303290
29.35107,311157
29.35732,304709
29.36357,297712
29.36983,305138
29.37608,299457
29.38233,307796
29.38860,311358
29.39485,304160
29.40110,304403
29.40737,307969
29.41362,313809
29.41987,298005
29.42613,313684
29.43238,300489
29.43863,309953
29.44490,311456
29.45115,311536
29.45740,307159
29.46367,302233
29.46992,309749
29.47617,306994
29.48243,291624
29.48868,295357
29.49493,311405
29.50120,295502
29.50745,294168
29.51370,297707
29.51997,296257
29.52622,302505
29.53247,301007
29.53872,302791
29.54498,296009
29.55123,308295
29.55748,306763
29.56375,294179
29.57000,303736
29.57625,295960
29.58252,300789
29.58877,303882
29.59502,294520
29.60128,296699
29.60753,297076
29.61378,304396
29.62005,303941
29.62630,293964
29.63255,294839
29.63882,307494
29.64507,300367
29.65132,306635
29.65758,293320
29.66383,305206
29.67008,304712
29.67635,303003
29.68260,287851
29.68885,297935
29.69512,305859
29.70137,303788
29.70762,302233
29.71388,301551
29.72013,289044
29.72638,296444
29.73265,299493
29.73890,289721
29.74515,299626
29.75140,297476
29.75767,299639
29.76392,297519
29.77017,297253
29.77643,282589
29.78268,293382
29.78893,299823
29.79520,292202
29.80145,306038
29.80770,300770
29.81397,292127
29.82022,291705
29.82647,289496
29.83273,295054
29.83898,289484
29.84523,286168
29.85150,288461
29.85775,300072
29.86400,299224
29.87027,297143
29.87652,287955
29.88277,297215
29.88903,297872
29.89528,298522
29.90153,286061
29.90780,296820
29.91405,297789
29.92030,285151
29.92657,298057
29.93282,298106
29.93907,287079
29.94533,294804
29.95158,284777
29.95783,298245
29.96408,287003
29.97035,285843
29.97660,286048
29.98285,287241
29.98912,296375
29.99537,283822
30.00162,296616
30.00788,299472
30.01413,290509
30.02038,282115
30.02665,291461
30.03290,284364
30.03915,282520
30.04542,285959
30.05167,283072
30.05792,282042
30.06418,283078
30.07043,284562
30.07668,290875
30.08295,288516
30.08920,291401
30.09545,293152
30.10172,293154
30.10797,291453
30.11422,290814
30.12048,282393
30.12673,282487
30.13298,284373
30.13925,282321
30.14550,284618
30.15175,286419
30.15802,289038
30.16427,289986
30.17052,290179
30.17678,275528
30.18303,288241
30.18928,283009
30.19553,289792
30.20180,280493
30.20805,291765
30.21430,283012
30.22057,280602
30.22682,276317
30.23307,288215
30.23933,276267
30.24558,280297
30.25183,278928
30.25810,279352
30.26435,290260
30.27060,279504
30.27687,287890
30.28312,288596
30.28937,278032
30.29563,285549
30.30188,287444
30.30813,288446
30.31440,280312
30.32065,279169
30.32690,282433
30.33317,285513
30.33942,281933
30.34567,279631
30.35193,286905
30.35818,287692
30.36443,284719
30.37070,279774
30.37695,279307
30.38320,286536
30.38947,281113
30.39572,276787
30.40197,273778
30.40822,274669
30.41448,279033
30.42073,273788
30.42698,281603
30.43325,271374
30.43950,282654
30.44575,282463
30.45202,269381
30.45827,281495
30.46452,283678
30.47078,283596
30.47703,277018
30.48328,283190
30.48955,282174
30.49580,270894
30.50205,274689
30.50832,281812
30.51457,285609
30.52082,279482
30.52708,271955
30.53333,275869
30.53958,274277
30.54585,280795
30.55210,268668
30.55835,270985
30.56462,276961
30.57087,271474
30.57712,268663
30.58338,269211
30.58963,279498
30.59588,268512
30.60215,277613
30.60840,282765
30.61465,278097
30.62092,281884
30.62717,278623
30.63342,276688
30.63967,281952
30.64593,271774
30.65218,271229
30.65843,268675
30.66470,277830
30.67095,288524
30.67720,298134
30.68347,301346
30.68972,303468
30.69597,306266
30.70223,305325
30.70848,289521
30.71473,290155
30.72100,289348
30.72725,275982
30.73350,287198
30.73977,285417
30.74602,281432
30.75227,283434
30.75853,276216
30.76478,283427
30.77103,283889
30.77730,273461
30.78355,270201
30.78980,272141
30.79607,285654
30.80232,282673
30.80857,277496
30.81483,268938
30.82108,272574
30.82733,274568
30.83360,267113
30.83985,267184
30.84610,270531
30.85235,268616
30.85862,274249
30.86487,275554
30.87112,271313
30.87738,276087
30.88363,268363
30.88988,261518
30.89615,271403
30.90240,267944
30.90865,266436
30.91492,269043
30.92117,261898
30.92742,270216
30.93368,268265
30.93993,266165
30.94618,266767
30.95245,271810
30.95870,264916
30.96495,266487
30.97122,271436
30.97747,279880
30.98372,286523
30.98998,282133
30.99623,286991
31.00248,274918
31.00875,276651
31.01500,287095
31.02125,283259
31.02752,267472
31.03377,264794
31.04002,262793
31.04628,273751
31.05253,262609
31.05878,266284
31.06505,273435
31.07130,259534
31.07755,259148
31.08380,273910
31.09007,261242
31.09632,259169
31.10257,263913
31.10883,266093
31.11508,273783
31.12133,265758
31.12760,266692
31.13385,263523
31.14010,274403
31.14637,258603
31.15262,261824
31.15887,270661
31.16513,269830
31.17138,261998
31.17763,271516
31.18390,269302
31.19015,268174
31.19640,261951
31.20267,258657
31.20892,274684
31.21517,270569
31.22143,267675
31.22768,259421
31.23393,265277
31.24020,259854
31.24645,266416
31.25270,259624
31.25897,268749
31.26522,259970
31.27147,259700
31.27773,256945
31.28398,265512
31.29023,256765
31.29648,264237
31.30275,270692
31.30900,262661
31.31525,257554
31.32152,257971
31.32777,268100
31.33402,271922
31.34028,270965
31.34653,260130
31.35278,261471
31.35905,260561
31.36530,272624
31.37155,262192
31.37782,270668
31.38407,264874
31.39032,264720
31.39658,274346
31.40283,263109
31.40908,272515
31.41535,265703
31.42160,262507
31.42785,265137
31.43412,270094
31.44037,270485
31.44662,269660
31.45288,258391
31.45913,267312
31.46538,254165
31.47165,269260
31.47790,249320
31.48415,257625
31.49042,256837
31.49667,261094
31.50292,263712
31.50918,263354
31.51543,264393
31.52168,264180
31.52793,264850
31.53420,252304
31.54045,253795
31.54670,254556
31.55297,261248
31.55922,262275
31.56547,267084
31.57173,255571
31.57798,263125
31.58423,258996
31.59050,255350
31.59675,259797
31.60300,251869
31.60927,255875
31.61552,255854
31.62177,263016
31.62803,250839
31.63428,255457
31.64053,252905
31.64680,249904
31.65305,258813
31.65930,250127
31.66557,251378
31.67182,253060
31.67807,252933
31.68433,251980
31.69058,252832
31.69683,258717
31.70310,261020
31.70935,250704
31.71560,261638
31.72187,260129
31.72812,252017
31.73437,258714
31.74062,256709
31.74688,250781
31.75313,260419
31.75938,261781
31.76565,247312
31.77190,249800
31.77815,244397
31.78442,257983
31.79067,247293
31.79692,251344
31.80318,253698
31.80943,257778
31.81568,261527
31.82195,246378
31.82820,256256
31.83445,257388
31.84072,258413
31.84697,258825
31.85322,260776
31.85948,246010
31.86573,257691
31.87198,254952
31.87825,253605
31.88450,255222
31.89075,256970
31.89702,248652
31.90327,256503
31.90952,243207
31.91578,246279
31.92203,256310
31.92828,254865
31.93455,252066
31.94080,246478
31.94705,256564
31.95330,248201
31.95957,251350
31.96582,257590
31.97207,250023
31.97833,250262
31.98458,246346
31.99083,248954
31.99710,248951
32.00335,252293
32.00960,244687
32.01587,242016
32.02212,242714
32.02837,254269
32.03463,245490
32.04088,242120
32.04713,244495
32.05340,244881
32.05965,244970
32.06590,242239
32.07217,242412
32.07842,244172
32.08467,255897
32.09093,251707
32.09718,252004
32.10343,243887
32.10970,242887
32.11595,252809
32.12220,251999
32.12847,238703
32.13472,244614
32.14097,241787
32.14723,246660
32.15348,249765
32.15973,238498
32.16600,245898
32.17225,245653
32.17850,248252
32.18475,246376
32.19102,244529
32.19727,242680
32.20352,253784
32.20978,242041
32.21603,251005
32.22228,255627
32.22855,243847
32.23480,243657
32.24105,252130
32.24732,250431
32.25357,247309
32.25982,248303
32.26608,252244
32.27233,246759
32.27858,250216
32.28485,252337
32.29110,240718
32.29735,250342
32.30362,241738
32.30987,244164
32.31612,238315
32.32238,240196
32.32863,252677
32.33488,240991
32.34115,247319
32.34740,248520
32.35365,239939
32.35992,238658
32.36617,239610
32.37242,245533
32.37868,236596
32.38493,247686
32.39118,237950
32.39743,246099
32.40370,248307
32.40995,247651
32.41620,243802
32.42247,253465
32.42872,238436
32.43497,245988
32.44123,236561
32.44748,245959
32.45373,247834
32.46000,238522
32.46625,238367
32.47250,248557
32.47877,239087
32.48502,239872
32.49127,238369
32.49753,234750
32.50378,236250
32.51003,238579
32.51630,240681
32.52255,244613
32.52880,245312
32.53507,236929
32.54132,243577
32.54757,245436
32.55383,244153
32.56008,248267
32.56633,239804
32.57260,244996
32.57885,233386
32.58510,233553
32.59137,234020
32.59762,239230
32.60387,240262
32.61012,242864
32.61638,242751
32.62263,241547
32.62888,245597
32.63515,242600
32.64140,232442
32.64765,240415
32.65392,234470
32.66017,241549
32.66642,242349
32.67268,241965
32.67893,240154
32.68518,236396
32.69145,238343
32.69770,235884
32.70395,244731
32.71022,234995
32.71647,240009
32.72272,239066
32.72898,234343
32.73523,239110
32.74148,242036
32.74775,233547
32.75400,243312
32.76025,246540
32.76652,233264
32.77277,235506
32.77902,234854
32.78528,233542
32.79153,239309
32.79778,232592
32.80405,238852
32.81030,240650
32.81655,241045
32.82282,234052
32.82907,234119
32.83532,239095
32.84157,241714
32.84783,236591
32.85408,238792
32.86033,240539
32.86660,235547
32.87285,233687
32.87910,238889
32.88537,239575
32.89162,240549
32.89787,239128
32.90413,232754
32.91038,226577
32.91663,240906
32.92290,239327
32.92915,239013
32.93540,232642
32.94167,232853
32.94792,228527
32.95417,237780
32.96043,232721
32.96668,230653
32.97293,231235
32.97920,230549
32.98545,228077
32.99170,234779
32.99797,240735
33.00422,227272
33.01047,237885
33.01673,238482
33.02298,233296
33.02923,235436
33.03550,228978
33.04175,236408
33.04800,230012
33.05425,229458
33.06052,229984
33.06677,232960
33.07302,233269
33.07928,233728
33.08553,228146
33.09178,228047
33.09805,225493
33.10430,230607
33.11055,238377
33.11682,231805
33.12307,232126
33.12932,237448
33.13558,241743
33.14183,243276
33.14808,243879
33.15435,244682
33.16060,245771
33.16685,245730
33.17312,253771
33.17937,248490
33.18562,244796
33.19188,241482
33.19813,241133
33.20438,240373
33.21065,244416
33.21690,234596
33.22315,234097
33.22942,227780
33.23567,230571
33.24192,236105
33.24818,227245
33.25443,230352
33.26068,228405
33.26693,237722
33.27320,225462
33.27945,235356
33.28570,225204
33.29197,235469
33.29822,233901
33.30447,237117
33.31073,227649
33.31698,239414
33.32323,233999
33.32950,225462
33.33575,223927
33.34200,235909
33.34827,232054
33.35452,233729
33.36077,228288
33.36703,227046
33.37328,235316
33.37953,235711
33.38580,239398
33.39205,232358
33.39830,225268
33.40457,222977
33.41082,234381
33.41707,233847
33.42333,233201
33.42958,221400
33.43583,229894
33.44210,224423
33.44835,222564
33.45460,225122
33.46087,231771
33.46712,232787
33.47337,220286
33.47963,223590
33.48588,233531
33.49213,229792
33.49838,229977
33.50465,223651
33.51090,223198
33.51715,226892
33.52342,222885
33.52967,219245
33.53592,221462
33.54218,228219
33.54843,221696
33.55468,227746
33.56095,223235
33.56720,219418
33.57345,227510
33.57972,222507
33.58597,220174
33.59222,233188
33.59848,226281
33.60473,220200
33.61098,229066
33.61725,225794
33.62350,221546
33.62975,220834
33.63602,228803
33.64227,229322
33.64852,221129
33.65478,219551
33.66103,218132
33.66728,220037
33.67355,232563
33.67980,226924
33.68605,221068
33.69232,215344
33.69857,227650
33.70482,226707
33.71107,222611
33.71733,225814
33.72358,215400
33.72983,219436
33.73610,216423
33.74235,219030
33.74860,219640
33.75487,227140
33.76112,218030
33.76737,225895
33.77363,224536
33.77988,225214
33.78613,216941
33.79240,218387
33.79865,224553
33.80490,225184
33.81117,226325
33.81742,212548
33.82367,222447
33.82993,227099
33.83618,217297
33.84243,219366
33.84870,217251
33.85495,215649
33.86120,217002
33.86747,226743
33.87372,216924
33.87997,219026
33.88623,217586
33.89248,217854
33.89873,214479
33.90500,223183
33.91125,224626
33.91750,221140
33.92377,221771
33.93002,225095
33.93627,216132
33.94252,218321
33.94878,216503
33.95503,222758
33.96128,215697
33.96755,219444
33.97380,220095
33.98005,217443
33.98632,222670
33.99257,221182
33.99882,222721
34.00508,214631
34.01133,223441
34.01758,220579
34.02385,211250
34.03010,217414
34.03635,215441
34.04262,218733
34.04887,221269
34.05512,214813
34.06138,222892
34.06763,220006
34.07388,211211
34.08015,223644
34.08640,218887
34.09265,210903
34.09892,213695
34.10517,221528
34.11142,211562
34.11768,214295
34.12393,218458
34.13018,215500
34.13645,214317
34.14270,213910
34.14895,218019
34.15520,220330
34.16147,219863
34.16772,220752
34.17397,209359
34.18023,214212
34.18648,218640
34.19273,223002
34.19900,217013
34.20525,219018
34.21150,218542
34.21777,211784
34.22402,212487
34.23027,222703
34.23653,213638
34.24278,216549
34.24903,208141
34.25530,218105
34.26155,211273
34.26780,210288
34.27407,213542
34.28032,214860
34.28657,220454
34.29283,210708
34.29908,219591
34.30533,214263
34.31160,224792
34.31785,220497
34.32410,211404
34.33037,211163
34.33662,211413
34.34287,222338
34.34913,210935
34.35538,218904
34.36163,209848
34.36790,210519
34.37415,211910
34.38040,208793
34.38665,213815
34.39292,212559
34.39917,217571
34.40542,218688
34.41168,219318
34.41793,214628
34.42418,211080
34.43045,209151
34.43670,208484
34.44295,210987
34.44922,211141
34.45547,208504
34.46172,220896
34.46798,211173
34.47423,218723
34.48048,211364
34.48675,220204
34.49300,216473
34.49925,207152
34.50552,217295
34.51177,208723
34.51802,217715
34.52428,216281
34.53053,210664
34.53678,205305
34.54305,205493
34.54930,215488
34.55555,215126
34.56182,208062
34.56807,216242
34.57432,220872
34.58058,208276
34.58683,216701
34.59308,208735
34.59933,210517
34.60560,204508
34.61185,213945
34.61810,208487
34.62437,211549
34.63062,215425
34.63687,208395
34.64313,208465
34.64938,208445
34.65563,203472
34.66190,214698
34.66815,207184
34.67440,208009
34.68067,206269
34.68692,215477
34.69317,215437
34.69943,207228
34.70568,208920
34.71193,212697
34.71820,206546
34.72445,204755
34.73070,204154
34.73697,212669
34.74322,211908
34.74947,208591
34.75573,211925
34.76198,209606
34.76823,213128
34.77450,211146
34.78075,213222
34.78700,208978
34.79327,211203
34.79952,205435
34.80577,204025
34.81203,208367
34.81828,206351
34.82453,214002
34.83078,206875
34.83705,210208
34.84330,212131
34.84955,206660
34.85582,210699
34.86207,208315
34.86832,201907
34.87458,201532
34.88083,208215
34.88708,203140
34.89335,204202
34.89960,202665
34.90585,205434
34.91212,200682
34.91837,214305
34.92462,208019
34.93088,206141
34.93713,207833
34.94338,203007
34.94965,211988
34.95590,208690
34.96215,201546
34.96842,209970
34.97467,202171
34.98092,213850
34.98718,209170
34.99343,215601
34.99968,204170
35.00595,204301
35.01220,205106
35.01845,207817
35.02472,205523
35.03097,202222
35.03722,206940
35.04347,203627
35.04973,201725
35.05598,202885
35.06223,198200
35.06850,211068
35.07475,206531
35.08100,200295
35.08727,202481
35.09352,208424
35.09977,203289
35.10603,210309
35.11228,210740
35.11853,201898
35.12480,202779
35.13105,198594
35.13730,204282
35.14357,204173
35.14982,210289
35.15607,201505
35.16233,205373
35.16858,204903
35.17483,199444
35.18110,202445
35.18735,203808
35.19360,207732
35.19987,206081
35.20612,207029
35.21237,201937
35.21863,200925
35.22488,208488
35.23113,198309
35.23740,201652
35.24365,201959
35.24990,201556
35.25615,204439
35.26242,204738
35.26867,202965
35.27492,202673
35.28118,206405
35.28743,202694
35.29368,204337
35.29995,204850
35.30620,206253
35.31245,204150
35.31872,201907
35.32497,201895
35.33122,205629
35.33748,205750
35.34373,196887
35.34998,195316
35.35625,201236
35.36250,198560
35.36875,203925
35.37502,206183
35.38127,197064
35.38752,204187
35.39378,197912
35.40003,203094
35.40628,204422
35.41255,205326
35.41880,201081
35.42505,206550
35.43132,200218
35.43757,201374
35.44382,195515
35.45008,202118
35.45633,204531
35.46258,196962
35.46885,196135
35.47510,198792
35.48135,203444
35.48760,201198
35.49387,196285
35.50012,194116
35.50637,190172
35.51263,194657
35.51888,201810
35.52513,195928
35.53140,204257
35.53765,200248
35.54390,196896
35.55017,196066
35.55642,198638
35.56267,197439
35.56893,205131
35.57518,197764
35.58143,197779
35.58770,202131
35.59395,203044
35.60020,198766
35.60647,197822
35.61272,200343
35.61897,197187
35.62523,197832
35.63148,202280
35.63773,192856
35.64400,203986
35.65025,196522
35.65650,195094
35.66277,200883
35.66902,197115
35.67527,196425
35.68153,201354
35.68778,198545
35.69403,202140
35.70028,198552
35.70655,202789
35.71280,197695
35.71905,198637
35.72532,202178
35.73157,199067
35.73782,198353
35.74408,191295
35.75033,201963
35.75658,193862
35.76285,202440
35.76910,199569
35.77535,192804
35.78162,197708
35.78787,198565
35.79412,195004
35.80038,199452
35.80663,200638
35.81288,201359
35.81915,197307
35.82540,199325
35.83165,203363
35.83792,201826
35.84417,192188
35.85042,192667
35.85668,202041
35.86293,190910
35.86918,191261
35.87545,198019
35.88170,197999
35.88795,193863
35.89422,197280
35.90047,193451
35.90672,198006
35.91297,194566
35.91923,194591
35.92548,193517
35.93173,190758
35.93800,194797
35.94425,197112
35.95050,194516
35.95677,197498
35.96302,198939
35.96927,192518
35.97553,189780
35.98178,195021
35.98803,196703
35.99430,196681
36.00055,193839
36.00680,194826
36.01307,191466
36.01932,191195
36.02557,195711
36.03183,192521
36.03808,196202
36.04433,189675
36.05060,197920
36.05685,197215
36.06310,198318
36.06937,193650
36.07562,196254
36.08187,192529
36.08813,187073
36.09438,189569
36.10063,195064
36.10690,188699
36.11315,189121
36.11940,185018
36.12567,197590
36.13192,191229
36.13817,195828
36.14442,197028
36.15068,193534
36.15693,195049
36.16318,195599
36.16945,191265
36.17570,191951
36.18195,194797
36.18822,198433
36.19447,197722
36.20072,200644
36.20698,194708
36.21323,197605
36.21948,196740
36.22575,205934
36.23200,213967
36.23825,217773
36.24452,220866
36.25077,236647
36.25702,246015
36.26328,259803
36.26953,263634
36.27578,285138
36.28205,289925
36.28830,309183
36.29455,312516
36.30082,331224
36.30707,337326
36.31332,332279
36.31958,338958
36.32583,336192
36.33208,323215
36.33835,321983
36.34460,304883
36.35085,294805
36.35710,275897
36.36337,264653
36.36962,250754
36.37587,245552
36.38213,233521
36.38838,230628
36.39463,222334
36.40090,215032
36.40715,216076
36.41340,209698
36.41967,212825
36.42592,208855
36.43217,208845
36.43843,202320
36.44468,207307
36.45093,201404
36.45720,200889
36.46345,197865
36.46970,197162
36.47597,196427
36.48222,195929
36.48847,203134
36.49473,204325
36.50098,194485
36.50723,194718
36.51350,194236
36.51975,200410
36.52600,193514
36.53227,194204
36.53852,194366
36.54477,197710
36.55103,199899
36.55728,197923
36.56353,198275
36.56980,193957
36.57605,193430
36.58230,189319
36.58855,191285
36.59482,193695
36.60107,198423
36.60732,197835
36.61358,195066
36.61983,196400
36.62608,197852
36.63235,191043
36.63860,198511
36.64485,189193
36.65112,192504
36.65737,196100
36.66362,188990
36.66988,189358
36.67613,193404
36.68238,186129
36.68865,189622
36.69490,195735
36.70115,193702
36.70742,192820
36.71367,189740
36.71992,194695
36.72618,191020
36.73243,190023
36.73868,194321
36.74495,194807
36.75120,193951
36.75745,186160
36.76372,186797
36.76997,186832
36.77622,194849
36.78248,188328
36.78873,185377
36.79498,191146
36.80123,186754
36.80750,190054
36.81375,183540
36.82000,190182
36.82627,185746
36.83252,184837
36.83877,188721
36.84503,192991
36.85128,185739
36.85753,184468
36.86380,192455
36.87005,186430
36.87630,185880
36.88257,188251
36.88882,187851
36.89507,188200
36.90133,187302
36.90758,188654
36.91383,184633
36.92010,189702
36.92635,187803
36.93260,188379
36.93887,181817
36.94512,180547
36.95137,191732
36.95763,186717
36.96388,184476
36.97013,183386
36.97640,191037
36.98265,188835
36.98890,184594
36.99517,187400
37.00142,183161
37.00767,190372
37.01393,185143
37.02018,185964
37.02643,191507
37.03268,186748
37.03895,187803
37.04520,192086
37.05145,188088
37.05772,184984
37.06397,182296
37.07022,183126
37.07648,181900
37.08273,189398
37.08898,180711
37.09525,181590
37.10150,181437
37.10775,181132
37.11402,182598
37.12027,183497
37.12652,187403
37.13278,179544
37.13903,179180
37.14528,190695
37.15155,181420
37.15780,185048
37.16405,182401
37.17032,187333
37.17657,190730
37.18282,181651
37.18908,180876
37.19533,181998
37.20158,179657
37.20785,184498
37.21410,178309
37.22035,186955
37.22662,188309
37.23287,182535
37.23912,181713
37.24537,178748
37.25163,180011
37.25788,179028
37.26413,179113
37.27040,179334
37.27665,186635
37.28290,179214
37.28917,183720
37.29542,185684
37.30167,182277
37.30793,187885
37.31418,180753
37.32043,179648
37.32670,179274
37.33295,185570
37.33920,180184
37.34547,178624
37.35172,183494
37.35797,183381
37.36423,176889
37.37048,181265
37.37673,185414
37.38300,186554
37.38925,185076
37.39550,186220
37.40177,179178
37.40802,183200
37.41427,176755
37.42053,182084
37.42678,182627
37.43303,178187
37.43930,175989
37.44555,179035
37.45180,184037
37.45807,178082
37.46432,180230
37.47057,185203
37.47682,175886
37.48308,178959
37.48933,177652
