D:\MassHunter\GCMS\1\data\metastasis_lineages_3replicates_3runs_10302020\L_plate1_run2_10302020.D Sat Oct 31 01:38:46 2020
Start of data points
5.99303	165996
5.99930	173892
6.00555	179037
6.01180	184657
6.01807	179226
6.02432	171725
6.03057	169275
6.03683	188833
6.04308	195668
6.04933	198886
6.05560	200465
6.06185	212040
6.06810	210135
6.07437	192950
6.08062	178398
6.08687	175989
6.09313	218695
6.09938	430234
6.10563	833101
6.11190	1051588
6.11815	842452
6.12440	458799
6.13065	265062
6.13692	202741
6.14317	223808
6.14942	284205
6.15568	408275
6.16193	647291
6.16818	923446
6.17445	940863
6.18070	683499
6.18695	375653
6.19322	245123
6.19947	199313
6.20572	186236
6.21198	167593
6.21823	150219
6.22448	139734
6.23075	141528
6.23700	147409
6.24325	152333
6.24952	158047
6.25577	158801
6.26202	155264
6.26828	165040
6.27453	177323
6.28078	183785
6.28705	181846
6.29330	190051
6.29955	262342
6.30582	453559
6.31207	952324
6.31832	2605803
6.32458	6477696
6.33083	1.173334E+07
6.33708	1.42711E+07
6.34333	1.032806E+07
6.34960	3776316
6.35585	832212
6.36210	281824
6.36837	213719
6.37462	211347
6.38087	209670
6.38713	221227
6.39338	249581
6.39963	380498
6.40590	555801
6.41215	636905
6.41840	561830
6.42467	566777
6.43092	794201
6.43717	985463
6.44343	969566
6.44968	1312405
6.45593	3061043
6.46220	7350023
6.46845	1.428275E+07
6.47470	2.306446E+07
6.48097	3.171307E+07
6.48722	3.843306E+07
6.49347	4.331432E+07
6.49973	4.594884E+07
6.50598	4.619231E+07
6.51223	4.576058E+07
6.51850	4.483623E+07
6.52475	4.419176E+07
6.53100	3.95888E+07
6.53727	4147592
6.54352	929367
6.54977	920932
6.55603	1090623
6.56228	1429857
6.56853	1980675
6.57478	2434097
6.58105	2126970
6.58730	1238577
6.59355	589689
6.59982	360848
6.60607	306575
6.61232	287328
6.61858	277013
6.62483	284795
6.63108	283395
6.63735	290892
6.64360	294943
6.64985	293871
6.65612	312471
6.66237	386987
6.66862	459328
6.67488	444518
6.68113	368666
6.68738	318775
6.69365	285997
6.69990	285370
6.70615	282610
6.71242	293031
6.71867	319738
6.72492	329215
6.73118	340741
6.73743	350310
6.74368	360408
6.74995	359699
6.75620	366250
6.76245	358071
6.76872	368481
6.77497	365700
6.78122	362064
6.78747	388257
6.79373	412884
6.79998	468291
6.80623	509302
6.81250	492915
6.81875	471989
6.82500	466012
6.83127	457606
6.83752	490352
6.84377	537647
6.85003	532961
6.85628	504202
6.86253	494987
6.86880	563073
6.87505	771573
6.88130	1009896
6.88757	1012022
6.89382	805625
6.90007	604877
6.90633	530017
6.91258	486558
6.91883	463839
6.92510	433993
6.93135	433181
6.93760	419902
6.94387	421513
6.95012	392448
6.95637	378761
6.96263	363627
6.96888	351147
6.97513	348237
6.98140	355412
6.98765	345629
6.99390	323538
7.00015	311254
7.00642	302689
7.01267	318179
7.01892	423282
7.02518	886008
7.03143	2408908
7.03768	5656604
7.04395	9326438
7.05020	1.057965E+07
7.05645	7369002
7.06272	3096287
7.06897	896071
7.07522	336856
7.08148	221471
7.08773	201786
7.09398	185192
7.10025	177955
7.10650	172807
7.11275	162917
7.11902	156817
7.12527	157404
7.13152	200874
7.13778	350410
7.14403	573124
7.15028	702417
7.15655	575991
7.16280	348782
7.16905	202240
7.17532	159500
7.18157	149972
7.18782	158423
7.19408	184150
7.20033	231038
7.20658	248937
7.21285	204052
7.21910	163379
7.22535	153936
7.23160	153830
7.23787	188248
7.24412	282995
7.25037	539031
7.25663	964784
7.26288	1239268
7.26913	1072347
7.27540	677023
7.28165	353195
7.28790	215509
7.29417	179996
7.30042	172463
7.30667	171427
7.31293	153150
7.31918	141003
7.32543	134871
7.33170	124920
7.33795	118929
7.34420	114842
7.35047	113357
7.35672	112204
7.36297	115445
7.36923	114663
7.37548	124773
7.38173	137077
7.38800	168928
7.39425	168934
7.40050	146953
7.40677	151911
7.41302	199829
7.41927	277652
7.42553	345544
7.43178	341768
7.43803	287672
7.44428	214656
7.45055	181872
7.45680	185995
7.46305	202187
7.46932	216910
7.47557	217854
7.48182	218678
7.48808	219985
7.49433	295548
7.50058	419064
7.50685	485757
7.51310	388849
7.51935	242309
7.52562	163083
7.53187	134236
7.53812	134805
7.54438	230603
7.55063	787861
7.55688	3001782
7.56315	8277804
7.56940	1.626592E+07
7.57565	2.538805E+07
7.58192	2.964826E+07
7.58817	2.557742E+07
7.59442	1.249301E+07
7.60068	3682655
7.60693	1551627
7.61318	1126505
7.61945	904172
7.62570	750090
7.63195	604765
7.63822	428370
7.64447	292726
7.65072	234272
7.65698	205820
7.66323	214173
7.66948	273816
7.67573	369729
7.68200	469900
7.68825	449432
7.69450	333000
7.70077	233513
7.70702	221592
7.71327	283184
7.71953	362309
7.72578	389837
7.73203	336594
7.73830	268926
7.74455	231864
7.75080	193280
7.75707	168263
7.76332	145761
7.76957	139908
7.77583	143418
7.78208	154655
7.78833	167783
7.79460	167102
7.80085	162755
7.80710	165141
7.81337	182906
7.81962	236909
7.82587	336223
7.83213	394394
7.83838	361396
7.84463	282862
7.85090	245114
7.85715	283005
7.86340	351057
7.86967	367375
7.87592	311190
7.88217	244432
7.88842	202162
7.89468	189916
7.90093	205827
7.90718	217613
7.91345	233782
7.91970	229164
7.92595	219269
7.93222	211028
7.93847	213682
7.94472	264464
7.95098	359065
7.95723	419118
7.96348	394880
7.96975	331226
7.97600	299289
7.98225	348605
7.98852	504401
7.99477	777785
8.00102	999763
8.00728	1192227
8.01353	1663719
8.01978	2354876
8.02605	2593976
8.03230	2040945
8.03855	1262154
8.04482	886253
8.05107	924883
8.05732	1014308
8.06358	856529
8.06983	565636
8.07608	396087
8.08235	441794
8.08860	622937
8.09485	794729
8.10112	919447
8.10737	1103191
8.11362	1539477
8.11987	1799940
8.12613	1471499
8.13238	823486
8.13863	393641
8.14490	242828
8.15115	194689
8.15740	174330
8.16367	167956
8.16992	160306
8.17617	153715
8.18243	152162
8.18868	149239
8.19493	139967
8.20120	138452
8.20745	140545
8.21370	157252
8.21997	205810
8.22622	348756
8.23247	577903
8.23873	702518
8.24498	585659
8.25123	390526
8.25750	266680
8.26375	217205
8.27000	195615
8.27627	206854
8.28252	230372
8.28877	262322
8.29503	239988
8.30128	202750
8.30753	160157
8.31380	131667
8.32005	123202
8.32630	127077
8.33255	130491
8.33882	140305
8.34507	134784
8.35132	132743
8.35758	135714
8.36383	137882
8.37008	138237
8.37635	128937
8.38260	130420
8.38885	146776
8.39512	233978
8.40137	469286
8.40762	832467
8.41388	926964
8.42013	695305
8.42638	377302
8.43265	219087
8.43890	179718
8.44515	193319
8.45142	213846
8.45767	223805
8.46392	203609
8.47018	171744
8.47643	160909
8.48268	156949
8.48895	156093
8.49520	161864
8.50145	175883
8.50772	182236
8.51397	180899
8.52022	163601
8.52648	144955
8.53273	126466
8.53898	128643
8.54525	123496
8.55150	148852
8.55775	197371
8.56400	334013
8.57027	565210
8.57652	935161
8.58277	1546581
8.58903	2301142
8.59528	2565951
8.60153	2187529
8.60780	2462287
8.61405	5330987
8.62030	1.126499E+07
8.62657	1.771438E+07
8.63282	1.972716E+07
8.63907	1.466758E+07
8.64533	6232271
8.65158	1618386
8.65783	442443
8.66410	275125
8.67035	256935
8.67660	231525
8.68287	221470
8.68912	220719
8.69537	225632
8.70163	230551
8.70788	246188
8.71413	252854
8.72040	251663
8.72665	229911
8.73290	199031
8.73917	201660
8.74542	214761
8.75167	220340
8.75793	191260
8.76418	152296
8.77043	136091
8.77668	132875
8.78295	139474
8.78920	131355
8.79545	127227
8.80172	118882
8.80797	114942
8.81422	117090
8.82048	126527
8.82673	172952
8.83298	408834
8.83925	1198509
8.84550	3196472
8.85175	6315845
8.85802	9543849
8.86427	1.01822E+07
8.87052	8010729
8.87678	5787575
8.88303	5226862
8.88928	5859781
8.89555	6612794
8.90180	6313476
8.90805	3468164
8.91432	1230358
8.92057	543822
8.92682	302732
8.93308	211896
8.93933	187378
8.94558	185946
8.95185	217850
8.95810	261841
8.96435	318802
8.97062	361876
8.97687	367785
8.98312	389559
8.98937	445757
8.99563	586087
9.00188	814828
9.00813	986490
9.01440	975522
9.02065	748005
9.02690	519146
9.03317	518500
9.03942	782797
9.04567	1117672
9.05193	1099474
9.05818	732375
9.06443	410480
9.07070	259796
9.07695	211182
9.08320	192863
9.08947	200171
9.09572	219278
9.10197	224700
9.10823	207099
9.11448	179504
9.12073	153958
9.12700	154270
9.13325	159435
9.13950	178457
9.14577	191199
9.15202	224827
9.15827	279717
9.16453	348967
9.17078	386565
9.17703	378053
9.18330	418194
9.18955	490842
9.19580	510052
9.20207	430864
9.20832	300778
9.21457	217180
9.22082	166561
9.22708	154642
9.23333	173192
9.23958	220802
9.24585	272624
9.25210	298399
9.25835	254839
9.26462	189766
9.27087	141845
9.27712	135856
9.28338	135494
9.28963	168323
9.29588	229465
9.30215	322213
9.30840	384474
9.31465	416284
9.32092	453066
9.32717	451213
9.33342	463108
9.33968	658733
9.34593	1061370
9.35218	1382230
9.35845	1309103
9.36470	877700
9.37095	581504
9.37722	1070723
9.38347	3584495
9.38972	9048615
9.39598	1.574657E+07
9.40223	1.91374E+07
9.40848	1.645632E+07
9.41475	8449708
9.42100	2578447
9.42725	1025949
9.43350	1935069
9.43977	5992283
9.44602	1.47715E+07
9.45227	2.647284E+07
9.45853	3.423063E+07
9.46478	3.449574E+07
9.47103	2.546785E+07
9.47730	1.112093E+07
9.48355	2952187
9.48980	799629
9.49607	383361
9.50232	273793
9.50857	240329
9.51483	238139
9.52108	229250
9.52733	227847
9.53360	217011
9.53985	210156
9.54610	211149
9.55237	203711
9.55862	212419
9.56487	223051
9.57113	257273
9.57738	264756
9.58363	255716
9.58990	228546
9.59615	208437
9.60240	218598
9.60867	257465
9.61492	303832
9.62117	309367
9.62743	260493
9.63368	213880
9.63993	182006
9.64618	181752
9.65245	192965
9.65870	193863
9.66495	174248
9.67122	200577
9.67747	519658
9.68372	1915048
9.68998	5899747
9.69623	1.222119E+07
9.70248	1.735017E+07
9.70875	1.719026E+07
9.71500	1.094572E+07
9.72125	4539270
9.72752	2909281
9.73377	4286639
9.74002	5707684
9.74628	5298578
9.75253	3144280
9.75878	1297123
9.76505	507797
9.77130	268266
9.77755	222794
9.78382	191466
9.79007	168001
9.79632	152820
9.80258	144034
9.80883	145815
9.81508	145952
9.82135	146372
9.82760	145082
9.83385	159744
9.84012	191932
9.84637	272661
9.85262	586783
9.85888	1850212
9.86513	5243903
9.87138	1.11756E+07
9.87763	1.655852E+07
9.88390	1.731111E+07
9.89015	1.163535E+07
9.89640	4743079
9.90267	2047243
9.90892	2059596
9.91517	2242119
9.92143	1706435
9.92768	908247
9.93393	405164
9.94020	237036
9.94645	207979
9.95270	229610
9.95897	352126
9.96522	578719
9.97147	944016
9.97773	1179954
9.98398	1216499
9.99023	1099841
9.99650	913416
10.00275	668853
10.00900	468358
10.01527	346693
10.02152	279027
10.02777	243109
10.03403	206542
10.04028	189513
10.04653	188000
10.05280	183337
10.05905	173243
10.06530	150285
10.07157	139594
10.07782	135502
10.08407	151065
10.09032	163169
10.09658	167587
10.10283	173106
10.10908	171886
10.11535	165767
10.12160	157079
10.12785	143579
10.13412	122793
10.14037	113772
10.14662	105261
10.15288	109840
10.15913	110820
10.16538	111114
10.17165	112779
10.17790	124320
10.18415	136540
10.19042	143971
10.19667	140958
10.20292	126373
10.20918	121748
10.21543	144880
10.22168	228437
10.22795	377281
10.23420	529979
10.24045	593495
10.24672	552300
10.25297	439130
10.25922	325869
10.26548	243232
10.27173	207680
10.27798	182652
10.28425	197124
10.29050	256904
10.29675	330476
10.30300	318743
10.30927	251917
10.31552	177749
10.32177	162943
10.32803	193438
10.33428	282650
10.34053	366266
10.34680	355166
10.35305	256833
10.35930	180533
10.36557	151648
10.37182	142505
10.37807	131450
10.38433	118014
10.39058	106333
10.39683	101678
10.40310	98019
10.40935	93854
10.41560	92289
10.42187	103820
10.42812	114841
10.43437	119936
10.44063	125341
10.44688	125291
10.45313	131321
10.45940	134023
10.46565	134083
10.47190	138134
10.47817	167337
10.48442	248803
10.49067	301386
10.49693	300858
10.50318	231003
10.50943	167404
10.51570	125103
10.52195	112484
10.52820	130166
10.53445	170796
10.54072	215494
10.54697	240628
10.55322	206583
10.55948	170800
10.56573	162265
10.57198	174023
10.57825	196972
10.58450	215054
10.59075	220011
10.59702	236207
10.60327	450423
10.60952	1424483
10.61578	4067108
10.62203	8462145
10.62828	1.243333E+07
10.63455	1.26829E+07
10.64080	8356463
10.64705	3540391
10.65332	995236
10.65957	318023
10.66582	181996
10.67208	171946
10.67833	177970
10.68458	182350
10.69085	160547
10.69710	142501
10.70335	120665
10.70962	116165
10.71587	113096
10.72212	125179
10.72838	138368
10.73463	146636
10.74088	155002
10.74715	153835
10.75340	150175
10.75965	143081
10.76590	146074
10.77217	160865
10.77842	162343
10.78467	165098
10.79093	154437
10.79718	150854
10.80343	165758
10.80970	229257
10.81595	369280
10.82220	494857
10.82847	493326
10.83472	360033
10.84097	223941
10.84723	160463
10.85348	146896
10.85973	151573
10.86600	162640
10.87225	166128
10.87850	160298
10.88477	155154
10.89102	150583
10.89727	163881
10.90353	183006
10.90978	191945
10.91603	191628
10.92230	177888
10.92855	171622
10.93480	163745
10.94107	152819
10.94732	134583
10.95357	128422
10.95983	176695
10.96608	448642
10.97233	1451285
10.97858	4137841
10.98485	9295720
10.99110	1.61553E+07
10.99735	2.04257E+07
11.00362	1.92607E+07
11.00987	1.147867E+07
11.01612	3910868
11.02238	926256
11.02863	282288
11.03488	216272
11.04115	226138
11.04740	240244
11.05365	257543
11.05992	288495
11.06617	293832
11.07242	257050
11.07868	193040
11.08493	147260
11.09118	136427
11.09745	143824
11.10370	162537
11.10995	172691
11.11622	173655
11.12247	170840
11.12872	179875
11.13498	188009
11.14123	192566
11.14748	196190
11.15375	227064
11.16000	315623
11.16625	454322
11.17252	543181
11.17877	506164
11.18502	363586
11.19128	228888
11.19753	159135
11.20378	155708
11.21003	181515
11.21630	215284
11.22255	246208
11.22880	244947
11.23507	212366
11.24132	194055
11.24757	199688
11.25383	221243
11.26008	230652
11.26633	219948
11.27260	207847
11.27885	224358
11.28510	238623
11.29137	238148
11.29762	196965
11.30387	167341
11.31013	160092
11.31638	194960
11.32263	304887
11.32890	475065
11.33515	585832
11.34140	538989
11.34767	364651
11.35392	214547
11.36017	139984
11.36643	123298
11.37268	129228
11.37893	127103
11.38520	121333
11.39145	120801
11.39770	125518
11.40397	126790
11.41022	134584
11.41647	142761
11.42272	143348
11.42898	147730
11.43523	201849
11.44148	350357
11.44775	602297
11.45400	824137
11.46025	849579
11.46652	624692
11.47277	368739
11.47902	240272
11.48528	196564
11.49153	190907
11.49778	172539
11.50405	158885
11.51030	143476
11.51655	136663
11.52282	130280
11.52907	123712
11.53532	124620
11.54158	129572
11.54783	135215
11.55408	129673
11.56035	126906
11.56660	114408
11.57285	109549
11.57912	110347
11.58537	119422
11.59162	126856
11.59788	129717
11.60413	135140
11.61038	131630
11.61665	130393
11.62290	129574
11.62915	126293
11.63540	129921
11.64167	134834
11.64792	142259
11.65417	159793
11.66043	177259
11.66668	169219
11.67293	160152
11.67920	148784
11.68545	136721
11.69170	134949
11.69797	149022
11.70422	174160
11.71047	230278
11.71673	296680
11.72298	342402
11.72923	322131
11.73550	272993
11.74175	215357
11.74800	176393
11.75427	151338
11.76052	143964
11.76677	148467
11.77303	177178
11.77928	193854
11.78553	202944
11.79180	209994
11.79805	220632
11.80430	213927
11.81057	203363
11.81682	194182
11.82307	185013
11.82933	231151
11.83558	354645
11.84183	527499
11.84810	597737
11.85435	515888
11.86060	356428
11.86685	250955
11.87312	195136
11.87937	196975
11.88562	252178
11.89188	347765
11.89813	425661
11.90438	423408
11.91065	355872
11.91690	279315
11.92315	221598
11.92942	197251
11.93567	212748
11.94192	327105
11.94818	703174
11.95443	1591287
11.96068	3156708
11.96695	4965694
11.97320	5907112
11.97945	4539152
11.98572	2188640
11.99197	824952
11.99822	424586
12.00448	380815
12.01073	390276
12.01698	370290
12.02325	337575
12.02950	325609
12.03575	359940
12.04202	466868
12.04827	689227
12.05452	926768
12.06078	1021884
12.06703	917117
12.07328	709975
12.07953	507462
12.08580	422296
12.09205	401046
12.09830	411276
12.10457	389496
12.11082	337160
12.11707	261421
12.12333	217777
12.12958	194300
12.13583	192012
12.14210	186173
12.14835	176928
12.15460	170405
12.16087	166633
12.16712	166694
12.17337	167255
12.17963	175342
12.18588	188533
12.19213	216148
12.19840	273754
12.20465	333494
12.21090	403778
12.21717	460944
12.22342	481127
12.22967	450207
12.23593	411726
12.24218	392310
12.24843	466283
12.25470	646777
12.26095	1034571
12.26720	1523240
12.27347	2134847
12.27972	2251249
12.28597	1872393
12.29222	1209754
12.29848	629112
12.30473	306551
12.31098	193305
12.31725	156084
12.32350	148441
12.32975	148602
12.33602	162989
12.34227	193401
12.34852	233787
12.35478	260829
12.36103	281525
12.36728	266631
12.37355	254589
12.37980	250559
12.38605	289040
12.39232	345590
12.39857	362510
12.40482	314571
12.41108	254600
12.41733	211935
12.42358	201576
12.42985	220437
12.43610	258131
12.44235	287679
12.44862	279670
12.45487	245198
12.46112	223278
12.46738	234418
12.47363	283654
12.47988	453461
12.48615	794017
12.49240	1284839
12.49865	1613998
12.50492	1628557
12.51117	1165267
12.51742	625223
12.52367	312655
12.52993	199754
12.53618	188024
12.54243	220515
12.54870	248292
12.55495	249965
12.56120	239105
12.56747	254096
12.57372	381862
12.57997	712636
12.58623	1360289
12.59248	2181368
12.59873	2620101
12.60500	2300653
12.61125	1909339
12.61750	2018638
12.62377	2750965
12.63002	3968566
12.63627	5515492
12.64253	7625785
12.64878	1.01558E+07
12.65503	1.35225E+07
12.66130	1.807056E+07
12.66755	2.336503E+07
12.67380	2.738007E+07
12.68007	2.930392E+07
12.68632	2.874957E+07
12.69257	2.14975E+07
12.69883	8415384
12.70508	1764512
12.71133	732735
12.71760	855692
12.72385	1120624
12.73010	1171161
12.73635	1048200
12.74262	952050
12.74887	873213
12.75512	728768
12.76138	576370
12.76763	472680
12.77388	408943
12.78015	375839
12.78640	369116
12.79265	374741
12.79892	371345
12.80517	351770
12.81142	315863
12.81768	289146
12.82393	277613
12.83018	281146
12.83645	292448
12.84270	283112
12.84895	279178
12.85522	270658
12.86147	267960
12.86772	272762
12.87398	268381
12.88023	286362
12.88648	366069
12.89275	534967
12.89900	739634
12.90525	870167
12.91152	813464
12.91777	682585
12.92402	558327
12.93028	417652
12.93653	318875
12.94278	255933
12.94903	227692
12.95530	219637
12.96155	208269
12.96780	203197
12.97407	198502
12.98032	196056
12.98657	210720
12.99283	230598
12.99908	253214
13.00533	274716
13.01160	292281
13.01785	317032
13.02410	378345
13.03037	508339
13.03662	705983
13.04287	788310
13.04913	706737
13.05538	521245
13.06163	407779
13.06790	486020
13.07415	888664
13.08040	1742898
13.08667	2912415
13.09292	3590869
13.09917	3358958
13.10543	2212027
13.11168	1134689
13.11793	664090
13.12420	467607
13.13045	356628
13.13670	313901
13.14297	308513
13.14922	310295
13.15547	290298
13.16173	269836
13.16798	252758
13.17423	237354
13.18048	223034
13.18675	215265
13.19300	202119
13.19925	200656
13.20552	205756
13.21177	202964
13.21802	211074
13.22428	222142
13.23053	245998
13.23678	279552
13.24305	300030
13.24930	300233
13.25555	295169
13.26182	304911
13.26807	321733
13.27432	328236
13.28058	307410
13.28683	331985
13.29308	411175
13.29935	599502
13.30560	957378
13.31185	1402790
13.31812	1644155
13.32437	1400158
13.33062	845536
13.33688	446637
13.34313	298437
13.34938	282962
13.35565	293873
13.36190	292320
13.36815	277752
13.37442	256282
13.38067	238388
13.38692	230559
13.39317	219996
13.39943	215540
13.40568	211865
13.41193	216783
13.41820	232114
13.42445	254742
13.43070	289380
13.43697	331160
13.44322	359041
13.44947	356966
13.45573	325398
13.46198	292025
13.46823	263419
13.47450	245624
13.48075	246399
13.48700	255297
13.49327	251434
13.49952	258186
13.50577	260648
13.51203	257730
13.51828	267166
13.52453	279934
13.53080	295498
13.53705	313533
13.54330	368573
13.54957	487819
13.55582	700208
13.56207	856214
13.56833	842100
13.57458	666831
13.58083	519496
13.58710	500613
13.59335	617569
13.59960	846318
13.60587	1106539
13.61212	1227328
13.61837	1132181
13.62462	891854
13.63088	663006
13.63713	511485
13.64338	414485
13.64965	367061
13.65590	353347
13.66215	349112
13.66842	349244
13.67467	332741
13.68092	343451
13.68718	358143
13.69343	402214
13.69968	426109
13.70595	413845
13.71220	374808
13.71845	334814
13.72472	319502
13.73097	321803
13.73722	326272
13.74348	333405
13.74973	375281
13.75598	477891
13.76225	741590
13.76850	1100149
13.77475	1367866
13.78102	1155710
13.78727	780734
13.79352	581585
13.79978	737908
13.80603	1432704
13.81228	2881125
13.81855	5288189
13.82480	8307540
13.83105	1.300872E+07
13.83730	1.844946E+07
13.84357	2.505375E+07
13.84982	2.924232E+07
13.85607	2.61127E+07
13.86233	1.2064E+07
13.86858	2592443
13.87483	547070
13.88110	356728
13.88735	512606
13.89360	968285
13.89987	1919920
13.90612	3776483
13.91237	6462439
13.91863	9737822
13.92488	1.047993E+07
13.93113	7924424
13.93740	3798583
13.94365	1247881
13.94990	378354
13.95617	205137
13.96242	183525
13.96867	181594
13.97493	181495
13.98118	184766
13.98743	187867
13.99370	188824
13.99995	192089
14.00620	212529
14.01247	270917
14.01872	296523
14.02497	299642
14.03123	229186
14.03748	179239
14.04373	153008
14.05000	151300
14.05625	152010
14.06250	168268
14.06875	191616
14.07502	209597
14.08127	218787
14.08752	206021
14.09378	174921
14.10003	150568
14.10628	135631
14.11255	125174
14.11880	131491
14.12505	137405
14.13132	145074
14.13757	145120
14.14382	143571
14.15008	139456
14.15633	141431
14.16258	143328
14.16885	140037
14.17510	134421
14.18135	129408
14.18762	121324
14.19387	126598
14.20012	133675
14.20638	146304
14.21263	165440
14.21888	205350
14.22515	261584
14.23140	313871
14.23765	309979
14.24392	272806
14.25017	215082
14.25642	182052
14.26268	213289
14.26893	329959
14.27518	541504
14.28143	727867
14.28770	713010
14.29395	538434
14.30020	342637
14.30647	248108
14.31272	217574
14.31897	241308
14.32523	304521
14.33148	387872
14.33773	406734
14.34400	345433
14.35025	265805
14.35650	204660
14.36277	176155
14.36902	162745
14.37527	164454
14.38153	175539
14.38778	191721
14.39403	229551
14.40030	325988
14.40655	627144
14.41280	1465546
14.41907	3159246
14.42532	5384370
14.43157	6814782
14.43783	6062051
14.44408	3830844
14.45033	1986195
14.45660	1275113
14.46285	1016144
14.46910	926152
14.47537	790464
14.48162	695292
14.48787	594649
14.49413	496748
14.50038	373881
14.50663	272673
14.51288	226238
14.51915	210347
14.52540	224752
14.53165	243198
14.53792	250134
14.54417	231414
14.55042	222379
14.55668	208047
14.56293	204959
14.56918	206680
14.57545	210668
14.58170	206751
14.58795	191940
14.59422	177997
14.60047	167040
14.60672	165539
14.61298	172183
14.61923	173053
14.62548	176838
14.63175	197151
14.63800	252771
14.64425	365970
14.65052	500403
14.65677	554531
14.66302	502004
14.66928	382200
14.67553	309156
14.68178	276850
14.68805	300721
14.69430	357328
14.70055	483412
14.70682	610533
14.71307	625506
14.71932	573645
14.72557	608446
14.73183	861488
14.73808	1359742
14.74433	1881363
14.75060	2161511
14.75685	2332760
14.76310	2628713
14.76937	2673676
14.77562	2037966
14.78187	1094369
14.78813	520181
14.79438	383115
14.80063	583505
14.80690	1162442
14.81315	1951937
14.81940	2359905
14.82567	1918553
14.83192	1094884
14.83817	473008
14.84443	236243
14.85068	187651
14.85693	211183
14.86320	268262
14.86945	325117
14.87570	352128
14.88197	322970
14.88822	274235
14.89447	234884
14.90073	227626
14.90698	281714
14.91323	463035
14.91950	723429
14.92575	949457
14.93200	929969
14.93825	791185
14.94452	586909
14.95077	441640
14.95702	400136
14.96328	516050
14.96953	908645
14.97578	1713582
14.98205	2674516
14.98830	3116571
14.99455	2480801
15.00082	1380931
15.00707	619636
15.01332	338197
15.01958	255766
15.02583	224576
15.03208	212006
15.03835	211082
15.04460	237210
15.05085	265484
15.05712	273478
15.06337	282946
15.06962	278438
15.07588	265246
15.08213	248534
15.08838	252672
15.09465	284355
15.10090	329774
15.10715	364762
15.11342	395749
15.11967	469258
15.12592	582715
15.13218	680525
15.13843	766834
15.14468	876099
15.15095	941957
15.15720	1094084
15.16345	1491448
15.16970	2533985
15.17597	4208028
15.18222	4904439
15.18847	3920274
15.19473	2164431
15.20098	998078
15.20723	521470
15.21350	350729
15.21975	264421
15.22600	199879
15.23227	180109
15.23852	172894
15.24477	179696
15.25103	198199
15.25728	211321
15.26353	226525
15.26980	217826
15.27605	197594
15.28230	177103
15.28857	169129
15.29482	165486
15.30107	170416
15.30733	179718
15.31358	195879
15.31983	246908
15.32610	304860
15.33235	343351
15.33860	316209
15.34487	250395
15.35112	207299
15.35737	211977
15.36363	244347
15.36988	281345
15.37613	271881
15.38238	230024
15.38865	196404
15.39490	174757
15.40115	155289
15.40742	151519
15.41367	149889
15.41992	164420
15.42618	213815
15.43243	297179
15.43868	407011
15.44495	556360
15.45120	738171
15.45745	913834
15.46372	946060
15.46997	765882
15.47622	501759
15.48248	312137
15.48873	219320
15.49498	192985
15.50125	194605
15.50750	237817
15.51375	351341
15.52002	701500
15.52627	1654348
15.53252	3402993
15.53878	5337097
15.54503	7078822
15.55128	9014583
15.55755	1.21446E+07
15.56380	1.564163E+07
15.57005	1.47194E+07
15.57632	8552648
15.58257	2625906
15.58882	727111
15.59507	400186
15.60133	348051
15.60758	349361
15.61383	352923
15.62010	360553
15.62635	344429
15.63260	318372
15.63887	305531
15.64512	286736
15.65137	257426
15.65763	227868
15.66388	216080
15.67013	207471
15.67640	217151
15.68265	230312
15.68890	239928
15.69517	246841
15.70142	242801
15.70767	240024
15.71393	223430
15.72018	197792
15.72643	182335
15.73270	184329
15.73895	195256
15.74520	214191
15.75147	225168
15.75772	229304
15.76397	208657
15.77023	184999
15.77648	161465
15.78273	142897
15.78900	138829
15.79525	140036
15.80150	152072
15.80777	153996
15.81402	159975
15.82027	160477
15.82652	181689
15.83278	230143
15.83903	347236
15.84528	552904
15.85155	782459
15.85780	780138
15.86405	561032
15.87032	355791
15.87657	239001
15.88282	208347
15.88908	203722
15.89533	198600
15.90158	195248
15.90785	172891
15.91410	163123
15.92035	153678
15.92662	151440
15.93287	153770
15.93912	151345
15.94538	150598
15.95163	151215
15.95788	158198
15.96415	173676
15.97040	198198
15.97665	205466
15.98292	182263
15.98917	157238
15.99542	130893
16.00168	137269
16.00793	163201
16.01418	221298
16.02045	314149
16.02670	440604
16.03295	529328
16.03920	596907
16.04547	719693
16.05172	880517
16.05797	968147
16.06423	895770
16.07048	668874
16.07673	555591
16.08300	685815
16.08925	895743
16.09550	1053112
16.10177	1035417
16.10802	952926
16.11427	1090710
16.12053	1781458
16.12678	2830583
16.13303	3747286
16.13930	3346099
16.14555	2076976
16.15180	974295
16.15807	455593
16.16432	296620
16.17057	259595
16.17683	252609
16.18308	242803
16.18933	240911
16.19560	279151
16.20185	304689
16.20810	301258
16.21437	250699
16.22062	235930
16.22687	312814
16.23313	552334
16.23938	903809
16.24563	1112681
16.25190	925832
16.25815	587420
16.26440	340143
16.27065	246803
16.27692	208324
16.28317	187673
16.28942	188818
16.29568	212946
16.30193	300461
16.30818	440598
16.31445	573615
16.32070	565853
16.32695	419892
16.33322	290375
16.33947	221320
16.34572	194033
16.35198	187207
16.35823	185120
16.36448	188242
16.37075	189534
16.37700	182646
16.38325	180703
16.38952	176072
16.39577	174855
16.40202	174913
16.40828	175425
16.41453	172649
16.42078	172863
16.42705	192666
16.43330	278179
16.43955	541582
16.44582	1047229
16.45207	1493595
16.45832	1591325
16.46458	1299394
16.47083	898935
16.47708	639909
16.48333	490496
16.48960	394721
16.49585	330702
16.50210	298516
16.50837	322797
16.51462	407701
16.52087	565139
16.52713	750088
16.53338	821266
16.53963	756210
16.54590	629148
16.55215	514805
16.55840	444028
16.56467	405046
16.57092	374353
16.57717	346488
16.58343	330033
16.58968	331294
16.59593	339697
16.60220	329707
16.60845	326300
16.61470	330932
16.62097	338449
16.62722	343298
16.63347	357913
16.63973	395603
16.64598	433550
16.65223	474013
16.65850	490119
16.66475	448166
16.67100	407510
16.67727	361286
16.68352	369898
16.68977	443036
16.69603	459989
16.70228	422823
16.70853	383291
16.71478	351567
16.72105	320084
16.72730	325077
16.73355	327163
16.73982	350571
16.74607	383300
16.75232	472270
16.75858	696206
16.76483	1183888
16.77108	2211294
16.77735	4321781
16.78360	7523749
16.78985	1.041271E+07
16.79612	9407596
16.80237	8128372
16.80862	7954098
16.81488	8281428
16.82113	9646509
16.82738	1.009251E+07
16.83365	1.069402E+07
16.83990	1.204039E+07
16.84615	1.404476E+07
16.85242	1.460134E+07
16.85867	1.309349E+07
16.86492	1.010571E+07
16.87118	7756360
16.87743	6602171
16.88368	7203250
16.88995	8179664
16.89620	9800280
16.90245	1.048016E+07
16.90872	9733067
16.91497	7751470
16.92122	5811411
16.92747	4583109
16.93373	4557686
16.93998	4812327
16.94623	5055195
16.95250	5094276
16.95875	5350475
16.96500	5423413
16.97127	5167795
16.97752	4175224
16.98377	3157635
16.99003	2297618
16.99628	1902332
17.00253	1750585
17.00880	2296740
17.01505	3820904
17.02130	7181016
17.02757	1.27591E+07
17.03382	1.971347E+07
17.04007	2.592253E+07
17.04633	3.287363E+07
17.05258	4.06442E+07
17.05883	4.676078E+07
17.06510	5.073954E+07
17.07135	5.078559E+07
17.07760	4.922816E+07
17.08387	4.553282E+07
17.09012	4.185705E+07
17.09637	3.845392E+07
17.10263	3.67224E+07
17.10888	3.486752E+07
17.11513	3.376095E+07
17.12140	4.127902E+07
17.12765	2.934312E+07
17.13390	1.207909E+07
17.14017	1.073048E+07
17.14642	9526896
17.15267	9443371
17.15892	1.246682E+07
17.16518	2.101624E+07
17.17143	3.309172E+07
17.17768	4.254938E+07
17.18395	4.544763E+07
17.19020	4.042412E+07
17.19645	2.17185E+07
17.20272	6987190
17.20897	3657613
17.21522	3809368
17.22148	4767981
17.22773	5872194
17.23398	7519060
17.24025	1.138426E+07
17.24650	1.943539E+07
17.25275	3.166319E+07
17.25902	4.253592E+07
17.26527	5.036008E+07
17.27152	5.211137E+07
17.27778	5.071481E+07
17.28403	3.600075E+07
17.29028	1.471699E+07
17.29655	1.157781E+07
17.30280	1.548255E+07
17.30905	2.005439E+07
17.31532	1.898327E+07
17.32157	1.218039E+07
17.32782	5715617
17.33408	2573788
17.34033	1690986
17.34658	1526027
17.35285	1354874
17.35910	1254594
17.36535	1184231
17.37160	1187539
17.37787	1166218
17.38412	1123753
17.39037	1110049
17.39663	1091419
17.40288	1172047
17.40913	1383023
17.41540	1639241
17.42165	1756746
17.42790	1913761
17.43417	1673377
17.44042	1716368
17.44667	2225251
17.45293	3167498
17.45918	4935898
17.46543	5693751
17.47170	4927143
17.47795	3132564
17.48420	1849954
17.49047	1239560
17.49672	1101034
17.50297	1000252
17.50923	1072963
17.51548	1159024
17.52173	1303724
17.52800	1331999
17.53425	1146217
17.54050	956024
17.54677	803563
17.55302	819544
17.55927	1043922
17.56553	1565600
17.57178	3253729
17.57803	6231388
17.58428	9856705
17.59055	1.16896E+07
17.59680	1.004668E+07
17.60305	5798589
17.60932	2526504
17.61557	1354347
17.62182	1087273
17.62808	1115245
17.63433	1054967
17.64058	956855
17.64685	792942
17.65310	733940
17.65935	665485
17.66562	667015
17.67187	615661
17.67812	611002
17.68438	613541
17.69063	645184
17.69688	672208
17.70315	696086
17.70940	713508
17.71565	707752
17.72192	604368
17.72817	570831
17.73442	559169
17.74068	600558
17.74693	615379
17.75318	638984
17.75945	667013
17.76570	703172
17.77195	838016
17.77822	985433
17.78447	1278114
17.79072	1974701
17.79698	3119736
17.80323	5103876
17.80948	7922228
17.81573	1.050305E+07
17.82200	1.103423E+07
17.82825	8853417
17.83450	6135215
17.84077	3092879
17.84702	1722138
17.85327	1224046
17.85953	1271248
17.86578	1976118
17.87203	4192611
17.87830	7702492
17.88455	1.110834E+07
17.89080	1.029589E+07
17.89707	6629620
17.90332	3047432
17.90957	1279876
17.91583	750644
17.92208	629169
17.92833	573517
17.93460	544709
17.94085	507090
17.94710	483704
17.95337	482956
17.95962	477717
17.96587	488660
17.97213	496602
17.97838	506253
17.98463	515886
17.99090	549723
17.99715	600368
18.00340	722588
18.00967	891536
18.01592	957715
18.02217	904070
18.02842	759617
18.03468	613514
18.04093	522668
18.04718	477078
18.05345	452283
18.05970	423640
18.06595	401904
18.07222	382977
18.07847	381535
18.08472	394504
18.09098	436244
18.09723	489342
18.10348	561753
18.10975	589485
18.11600	570050
18.12225	582288
18.12852	686343
18.13477	1164979
18.14102	2230521
18.14728	3306889
18.15353	3690002
18.15978	2872826
18.16605	1587361
18.17230	802688
18.17855	498914
18.18482	413428
18.19107	366444
18.19732	355644
18.20358	346839
18.20983	358068
18.21608	388070
18.22235	429294
18.22860	445458
18.23485	415351
18.24110	386887
18.24737	354015
18.25362	353132
18.25987	358415
18.26613	377258
18.27238	416255
18.27863	474283
18.28490	561640
18.29115	758267
18.29740	1156928
18.30367	1697479
18.30992	1935425
18.31617	1620105
18.32243	1132224
18.32868	728773
18.33493	494646
18.34120	370100
18.34745	320356
18.35370	317695
18.35997	332305
18.36622	344440
18.37247	348429
18.37873	353020
18.38498	391774
18.39123	449825
18.39750	486385
18.40375	487498
18.41000	477340
18.41627	472790
18.42252	461174
18.42877	431306
18.43503	389325
18.44128	359385
18.44753	336904
18.45380	321561
18.46005	301985
18.46630	287082
18.47255	284005
18.47882	281603
18.48507	275273
18.49132	267129
18.49758	265792
18.50383	267127
18.51008	275635
18.51635	274708
18.52260	273563
18.52885	270567
18.53512	268815
18.54137	280677
18.54762	290382
18.55388	300901
18.56013	312044
18.56638	312591
18.57265	300314
18.57890	294443
18.58515	283143
18.59142	274383
18.59767	279316
18.60392	302925
18.61018	336028
18.61643	402622
18.62268	418477
18.62895	399106
18.63520	344288
18.64145	314550
18.64772	302469
18.65397	308967
18.66022	298229
18.66648	297939
18.67273	322510
18.67898	313235
18.68523	305442
18.69150	285768
18.69775	270190
18.70400	292488
18.71027	330788
18.71652	378932
18.72277	392886
18.72903	367787
18.73528	314904
18.74153	283389
18.74780	275298
18.75405	274868
18.76030	268434
18.76657	263324
18.77282	258979
18.77907	243442
18.78533	247509
18.79158	241669
18.79783	236519
18.80410	240412
18.81035	246972
18.81660	263946
18.82287	259016
18.82912	258306
18.83537	256077
18.84163	250995
18.84788	242014
18.85413	242944
18.86040	243715
18.86665	295824
18.87290	469154
18.87917	1024315
18.88542	2343801
18.89167	5170515
18.89792	9821115
18.90418	1.277025E+07
18.91043	1.165889E+07
18.91668	7911131
18.92295	3853616
18.92920	1390489
18.93545	565412
18.94172	415392
18.94797	377749
18.95422	341829
18.96048	300828
18.96673	257352
18.97298	233348
18.97925	223445
18.98550	218699
18.99175	220867
18.99802	229372
19.00427	248073
19.01052	268743
19.01678	280514
19.02303	277112
19.02928	264317
19.03555	252919
19.04180	262690
19.04805	278709
19.05432	286610
19.06057	282402
19.06682	265356
19.07308	258250
19.07933	264193
19.08558	294158
19.09185	319035
19.09810	330040
19.10435	321790
19.11062	315239
19.11687	306534
19.12312	308512
19.12937	310844
19.13563	328758
19.14188	325141
19.14813	317271
19.15440	286578
19.16065	265124
19.16690	243603
19.17317	224669
19.17942	218292
19.18567	212788
19.19193	218125
19.19818	224918
19.20443	233403
19.21070	233074
19.21695	229274
19.22320	231902
19.22947	221103
19.23572	211077
19.24197	201763
19.24823	205716
19.25448	201047
19.26073	199585
19.26700	195152
19.27325	195253
19.27950	197181
19.28577	203164
19.29202	212260
19.29827	226244
19.30453	224487
19.31078	214267
19.31703	206162
19.32330	198310
19.32955	190431
19.33580	196572
19.34205	208703
19.34832	237210
19.35457	263343
19.36082	273629
19.36708	264705
19.37333	248266
19.37958	234255
19.38585	233191
19.39210	241475
19.39835	256523
19.40462	281058
19.41087	299838
19.41712	298102
19.42338	283023
19.42963	266029
19.43588	246423
19.44215	239439
19.44840	239542
19.45465	249162
19.46092	245031
19.46717	234225
19.47342	229102
19.47968	230447
19.48593	230535
19.49218	239994
19.49845	254723
19.50470	253901
19.51095	265610
19.51722	264524
19.52347	267038
19.52972	270752
19.53598	266034
19.54223	284716
19.54848	332737
19.55475	402336
19.56100	446491
19.56725	418131
19.57350	358839
19.57977	281467
19.58602	236000
19.59227	216589
19.59853	216538
19.60478	206462
19.61103	206934
19.61730	202503
19.62355	206836
19.62980	226650
19.63607	266148
19.64232	300113
19.64857	314013
19.65483	298995
19.66108	279471
19.66733	277136
19.67360	305857
19.67985	354746
19.68610	393096
19.69237	378599
19.69862	329880
19.70487	305208
19.71113	293292
19.71738	303941
19.72363	300840
19.72990	295396
19.73615	284754
19.74240	289490
19.74867	298165
19.75492	289360
19.76117	282354
19.76743	307391
19.77368	360525
19.77993	384386
19.78618	374206
19.79245	330583
19.79870	296881
19.80495	285927
19.81122	277801
19.81747	261538
19.82372	232238
19.82998	218035
19.83623	201476
19.84248	199721
19.84875	200708
19.85500	219380
19.86125	268669
19.86752	316337
19.87377	355776
19.88002	355062
19.88628	310531
19.89253	264839
19.89878	261320
19.90505	347510
19.91130	711826
19.91755	1749989
19.92382	3525541
19.93007	5133197
19.93632	5332227
19.94258	3634157
19.94883	1822508
19.95508	782053
19.96135	392281
19.96760	360642
19.97385	447133
19.98012	552589
19.98637	626952
19.99262	614198
19.99888	527297
20.00513	420465
20.01138	328408
20.01763	269941
20.02390	244851
20.03015	239996
20.03640	237145
20.04267	255350
20.04892	291203
20.05517	322891
20.06143	326713
20.06768	293114
20.07393	257516
20.08020	230157
20.08645	231050
20.09270	248315
20.09897	287186
20.10522	298084
20.11147	286324
20.11773	251800
20.12398	233512
20.13023	213693
20.13650	213157
20.14275	217882
20.14900	221163
20.15527	226988
20.16152	229444
20.16777	233128
20.17403	231850
20.18028	221505
20.18653	229953
20.19280	233487
20.19905	247095
20.20530	256117
20.21157	269561
20.21782	285992
20.22407	294482
20.23032	306578
20.23658	318499
20.24283	317298
20.24908	298867
20.25535	275506
20.26160	263753
20.26785	248316
20.27412	253199
20.28037	243241
20.28662	282652
20.29288	420507
20.29913	738827
20.30538	1247369
20.31165	1639463
20.31790	1512359
20.32415	1104882
20.33042	649938
20.33667	404637
20.34292	328031
20.34918	338730
20.35543	356126
20.36168	336014
20.36795	305907
20.37420	276767
20.38045	258905
20.38672	251223
20.39297	259839
20.39922	248085
20.40548	247321
20.41173	247670
20.41798	281227
20.42425	383306
20.43050	627757
20.43675	1171129
20.44302	1945884
20.44927	2459972
20.45552	2296588
20.46177	1658555
20.46803	969611
20.47428	620430
20.48053	634053
20.48680	821422
20.49305	973402
20.49930	967980
20.50557	728735
20.51182	509427
20.51807	388028
20.52433	373590
20.53058	375309
20.53683	365929
20.54310	378238
20.54935	467402
20.55560	564930
20.56187	643461
20.56812	600695
20.57437	500239
20.58063	398887
20.58688	358483
20.59313	372083
20.59940	403681
20.60565	392460
20.61190	351798
20.61817	302702
20.62442	263990
20.63067	236548
20.63693	229683
20.64318	232738
20.64943	247700
20.65570	279587
20.66195	305653
20.66820	323744
20.67445	316674
20.68072	301934
20.68697	280572
20.69322	260954
20.69948	254348
20.70573	297663
20.71198	439195
20.71825	759246
20.72450	1157756
20.73075	1527357
20.73702	1493634
20.74327	1200818
20.74952	831276
20.75578	572545
20.76203	590779
20.76828	853751
20.77455	1178790
20.78080	1267664
20.78705	1029182
20.79332	708573
20.79957	495963
20.80582	384904
20.81208	314362
20.81833	288125
20.82458	261156
20.83085	261875
20.83710	282592
20.84335	301560
20.84962	316995
20.85587	320246
20.86212	317439
20.86838	311552
20.87463	296015
20.88088	276549
20.88713	277659
20.89340	288994
20.89965	290354
20.90590	311334
20.91217	313504
20.91842	320835
20.92467	325279
20.93093	383332
20.93718	559666
20.94343	920053
20.94970	1423381
20.95595	1585748
20.96220	1450122
20.96847	1128941
20.97472	792184
20.98097	603166
20.98723	472900
20.99348	389287
20.99973	350026
21.00600	377348
21.01225	474526
21.01850	552356
21.02477	576960
21.03102	540313
21.03727	443322
21.04353	395221
21.04978	372262
21.05603	370627
21.06230	351825
21.06855	345095
21.07480	375583
21.08107	422225
21.08732	433023
21.09357	420079
21.09983	360057
21.10608	306530
21.11233	280305
21.11858	284107
21.12485	290941
21.13110	288355
21.13735	272387
21.14362	255465
21.14987	247374
21.15612	238986
21.16238	236173
21.16863	240438
21.17488	249352
21.18115	253906
21.18740	259606
21.19365	254222
21.19992	252478
21.20617	261029
21.21242	267680
21.21868	271773
21.22493	267833
21.23118	272719
21.23745	286097
21.24370	314513
21.24995	350892
21.25622	357980
21.26247	335536
21.26872	312785
21.27498	333489
21.28123	395965
21.28748	514997
21.29375	541717
21.30000	487936
21.30625	390281
21.31252	303387
21.31877	265970
21.32502	269237
21.33127	285541
21.33753	300511
21.34378	297853
21.35003	280859
21.35630	293286
21.36255	337887
21.36880	414539
21.37507	539681
21.38132	552828
21.38757	479434
21.39383	373064
21.40008	278082
21.40633	247320
21.41260	234637
21.41885	232111
21.42510	253183
21.43137	263742
21.43762	270249
21.44387	277503
21.45013	306368
21.45638	386156
21.46263	512805
21.46890	702730
21.47515	767273
21.48140	676847
21.48767	514766
21.49392	416502
21.50017	388809
21.50643	383630
21.51268	373720
21.51893	323164
21.52520	267534
21.53145	234868
21.53770	215863
21.54395	209902
21.55022	209478
21.55647	205133
21.56272	204967
21.56898	220017
21.57523	238418
21.58148	259396
21.58775	281263
21.59400	315788
21.60025	359749
21.60652	390112
21.61277	350199
21.61902	282898
21.62528	234404
21.63153	204711
21.63778	185554
21.64405	177354
21.65030	169296
21.65655	164403
21.66282	170601
21.66907	174252
21.67532	195613
21.68158	216573
21.68783	234194
21.69408	236600
21.70035	221572
21.70660	205372
21.71285	186312
21.71912	172779
21.72537	167749
21.73162	170662
21.73788	174258
21.74413	176243
21.75038	182226
21.75665	194088
21.76290	205759
21.76915	211202
21.77540	209147
21.78167	208350
21.78792	226666
21.79417	250442
21.80043	268935
21.80668	267093
21.81293	269581
21.81920	268389
21.82545	254822
21.83170	240528
21.83797	233982
21.84422	239032
21.85047	243669
21.85673	267149
21.86298	309304
21.86923	359642
21.87550	397756
21.88175	367403
21.88800	301704
21.89427	246863
21.90052	228012
21.90677	228001
21.91303	245753
21.91928	263705
21.92553	250081
21.93180	231187
21.93805	218847
21.94430	214880
21.95057	206964
21.95682	203902
21.96307	192025
21.96933	186260
21.97558	197046
21.98183	205911
21.98808	217713
21.99435	222298
22.00060	230225
22.00685	223789
22.01312	217043
22.01937	216872
22.02562	223199
22.03188	230195
22.03813	254256
22.04438	279172
22.05065	314510
22.05690	347927
22.06315	372760
22.06942	401761
22.07567	390720
22.08192	360637
22.08818	331865
22.09443	306251
22.10068	278584
22.10695	272694
22.11320	270502
22.11945	274394
22.12572	286515
22.13197	301779
22.13822	305152
22.14448	291299
22.15073	271565
22.15698	251982
22.16325	244085
22.16950	247444
22.17575	253415
22.18202	259472
22.18827	269391
22.19452	273473
22.20077	276926
22.20703	263050
22.21328	249483
22.21953	234764
22.22580	224558
22.23205	225460
22.23830	235565
22.24457	274673
22.25082	346774
22.25707	465263
22.26333	586298
22.26958	650300
22.27583	609201
22.28210	515865
22.28835	415156
22.29460	358200
22.30087	343896
22.30712	316340
22.31337	302869
22.31963	295869
22.32588	298578
22.33213	306703
22.33840	313631
22.34465	305898
22.35090	323819
22.35717	385235
22.36342	577265
22.36967	836581
22.37593	969154
22.38218	874383
22.38843	654818
22.39470	426998
22.40095	320873
22.40720	284277
22.41347	278804
22.41972	290689
22.42597	304374
22.43222	332980
22.43848	393969
22.44473	446899
22.45098	557357
22.45725	729720
22.46350	951213
22.46975	1038678
22.47602	948513
22.48227	692684
22.48852	517755
22.49478	408094
22.50103	360089
22.50728	333808
22.51355	315353
22.51980	294483
22.52605	282596
22.53232	294071
22.53857	342071
22.54482	473670
22.55108	657875
22.55733	799199
22.56358	776030
22.56985	678963
22.57610	562624
22.58235	443181
22.58862	372922
22.59487	330762
22.60112	309444
22.60738	306387
22.61363	301093
22.61988	311249
22.62615	322363
22.63240	330412
22.63865	331458
22.64490	359853
22.65117	384154
22.65742	378665
22.66367	363521
22.66993	342700
22.67618	357403
22.68243	398433
22.68870	447086
22.69495	458058
22.70120	421892
22.70747	354124
22.71372	308016
22.71997	284148
22.72623	278170
22.73248	280908
22.73873	277155
22.74500	289041
22.75125	297022
22.75750	303701
22.76377	308401
22.77002	326968
22.77627	353842
22.78253	452437
22.78878	856762
22.79503	2257027
22.80130	5393190
22.80755	1.035173E+07
22.81380	1.58266E+07
22.82007	1.825158E+07
22.82632	1.527774E+07
22.83257	8588679
22.83883	3324620
22.84508	1327738
22.85133	685862
22.85760	495789
22.86385	432331
22.87010	401595
22.87635	378218
22.88262	355501
22.88887	338134
22.89512	323865
22.90138	316189
22.90763	313350
22.91388	315828
22.92015	321391
22.92640	313517
22.93265	314742
22.93892	322234
22.94517	325255
22.95142	338207
22.95768	328415
22.96393	315309
22.97018	307371
22.97645	324164
22.98270	367964
22.98895	397065
22.99522	420253
23.00147	399131
23.00772	354318
23.01398	309996
23.02023	282339
23.02648	264902
23.03275	257800
23.03900	261033
23.04525	276510
23.05152	285235
23.05777	303203
23.06402	384207
23.07028	583454
23.07653	914002
23.08278	1294997
23.08903	1545955
23.09530	1318652
23.10155	926156
23.10780	580801
23.11407	383965
23.12032	301147
23.12657	267942
23.13283	249731
23.13908	245465
23.14533	240810
23.15160	240604
23.15785	230932
23.16410	225416
23.17037	217817
23.17662	217741
23.18287	218917
23.18913	227672
23.19538	233436
23.20163	235362
23.20790	238547
23.21415	240996
23.22040	235866
23.22667	221802
23.23292	222998
23.23917	217337
23.24543	222007
23.25168	227287
23.25793	237429
23.26420	237404
23.27045	232387
23.27670	227469
23.28297	221433
23.28922	216108
23.29547	233271
23.30173	266757
23.30798	372233
23.31423	529973
23.32048	688827
23.32675	763362
23.33300	708313
23.33925	531783
23.34552	380280
23.35177	307839
23.35802	265900
23.36428	247861
23.37053	236619
23.37678	233599
23.38305	230750
23.38930	239639
23.39555	238955
23.40182	240275
23.40807	242768
23.41432	234819
23.42058	237326
23.42683	228652
23.43308	230559
23.43935	233036
23.44560	245795
23.45185	268858
23.45812	286726
23.46437	312608
23.47062	329201
23.47688	361300
23.48313	393173
23.48938	461528
23.49565	495022
23.50190	515456
23.50815	576506
23.51442	663880
23.52067	818007
23.52692	921150
23.53317	839493
23.53943	650004
23.54568	463525
23.55193	350751
23.55820	316493
23.56445	322186
23.57070	378664
23.57697	460968
23.58322	588137
23.58947	658131
23.59573	631542
23.60198	530479
23.60823	429334
23.61450	364375
23.62075	320323
23.62700	298730
23.63327	284256
23.63952	287638
23.64577	292700
23.65203	295714
23.65828	282758
23.66453	266940
23.67080	253159
23.67705	251586
23.68330	256262
23.68957	271889
23.69582	298044
23.70207	318540
23.70833	318887
23.71458	338059
23.72083	422089
23.72710	577001
23.73335	797609
23.73960	915315
23.74587	848271
23.75212	643923
23.75837	448477
23.76462	333927
23.77088	289438
23.77713	277418
23.78338	277419
23.78965	282858
23.79590	285857
23.80215	286210
23.80842	297785
23.81467	323669
23.82092	358817
23.82718	380668
23.83343	381099
23.83968	356266
23.84595	318845
23.85220	296373
23.85845	284132
23.86472	279460
23.87097	285759
23.87722	303203
23.88348	358965
23.88973	424138
23.89598	523912
23.90225	576909
23.90850	546112
23.91475	473825
23.92102	396777
23.92727	345049
23.93352	331630
23.93978	320103
23.94603	329103
23.95228	378360
23.95855	571950
23.96480	1170319
23.97105	2390319
23.97730	4601635
23.98357	7937607
23.98982	1.185065E+07
23.99607	1.848799E+07
24.00233	2.612713E+07
24.00858	3.160951E+07
24.01483	2.899028E+07
24.02110	2.082357E+07
24.02735	1.069336E+07
24.03360	4299661
24.03987	2035093
24.04612	1297908
24.05237	977296
24.05863	785922
24.06488	703717
24.07113	685472
24.07740	831146
24.08365	822599
24.08990	807743
24.09617	833357
24.10242	1034214
24.10867	1798427
24.11493	3471950
24.12118	5246532
24.12743	7115571
24.13370	6892675
24.13995	4781397
24.14620	2714918
24.15247	1483992
24.15872	863382
24.16497	622113
24.17123	538051
24.17748	522437
24.18373	569882
24.18998	678570
24.19625	904486
24.20250	1354420
24.20875	2524707
24.21502	5361143
24.22127	1.073776E+07
24.22752	1.783856E+07
24.23378	2.481436E+07
24.24003	3.277557E+07
24.24628	3.904659E+07
24.25255	4.171252E+07
24.25880	4.30572E+07
24.26505	4.321241E+07
24.27132	4.278414E+07
24.27757	4.175722E+07
24.28382	2.681407E+07
24.29008	6368318
24.29633	2700223
24.30258	1983208
24.30885	1693827
24.31510	1530630
24.32135	1406604
24.32762	1328227
24.33387	1294866
24.34012	1297516
24.34638	1300444
24.35263	1294043
24.35888	1359886
24.36515	1382308
24.37140	1456412
24.37765	1521776
24.38392	1590543
24.39017	1514981
24.39642	1425274
24.40268	1309842
24.40893	1182919
24.41518	1107869
24.42143	1101596
24.42770	1113274
24.43395	1217023
24.44020	1537249
24.44647	1871020
24.45272	2056687
24.45897	1867785
24.46523	1482336
24.47148	1160095
24.47773	930330
24.48400	797172
24.49025	719056
24.49650	684333
24.50277	663203
24.50902	631613
24.51527	622524
24.52153	605752
24.52778	584511
24.53403	570858
24.54030	556234
24.54655	546015
24.55280	530029
24.55907	513098
24.56532	501017
24.57157	488340
24.57783	475767
24.58408	487853
24.59033	488126
24.59660	480309
24.60285	472718
24.60910	444919
24.61537	414704
24.62162	386403
24.62787	369277
24.63412	354156
24.64038	347441
24.64663	341814
24.65288	336605
24.65915	335086
24.66540	321820
24.67165	322134
24.67792	329096
24.68417	355763
24.69042	391267
24.69668	421237
24.70293	411990
24.70918	387234
24.71545	359649
24.72170	338042
24.72795	322596
24.73422	317528
24.74047	292601
24.74672	282123
24.75298	278277
24.75923	275188
24.76548	276685
24.77175	283824
24.77800	295799
24.78425	311613
24.79052	316265
24.79677	312786
24.80302	286887
24.80928	264000
24.81553	245494
24.82178	232204
24.82805	224557
24.83430	221383
24.84055	216085
24.84680	211850
24.85307	207694
24.85932	208354
24.86557	218760
24.87183	224843
24.87808	236349
24.88433	262223
24.89060	281901
24.89685	302738
24.90310	306920
24.90937	290065
24.91562	280307
24.92187	286705
24.92813	308246
24.93438	321678
24.94063	323053
24.94690	309534
24.95315	328799
24.95940	369159
24.96567	400122
24.97192	378379
24.97817	339496
24.98443	291978
24.99068	261595
24.99693	243813
25.00320	230957
25.00945	226359
25.01570	227572
25.02197	222826
25.02822	228344
25.03447	241305
25.04073	242621
25.04698	246294
25.05323	243190
25.05948	230353
25.06575	219432
25.07200	212383
25.07825	218530
25.08452	220740
25.09077	219044
25.09702	217023
25.10328	214734
25.10953	209137
25.11578	210740
25.12205	213313
25.12830	221778
25.13455	223788
25.14082	233140
25.14707	221707
25.15332	213366
25.15958	200308
25.16583	193061
25.17208	196933
25.17835	218674
25.18460	255837
25.19085	324561
25.19712	367385
25.20337	367837
25.20962	330329
25.21588	269509
25.22213	221484
25.22838	201006
25.23465	189565
25.24090	184855
25.24715	181863
25.25342	179945
25.25967	180813
25.26592	182966
25.27218	178946
25.27843	193539
25.28468	225424
25.29093	301005
25.29720	400275
25.30345	503707
25.30970	511848
25.31597	441024
25.32222	340586
25.32847	263697
25.33473	222616
25.34098	199003
25.34723	192134
25.35350	189364
25.35975	182235
25.36600	183412
25.37227	186610
25.37852	186264
25.38477	192227
25.39103	201329
25.39728	225493
25.40353	284402
25.40980	374656
25.41605	459231
25.42230	495524
25.42857	450975
25.43482	373511
25.44107	299982
25.44733	264098
25.45358	242218
25.45983	229754
25.46610	220696
25.47235	204279
25.47860	205851
25.48487	211202
25.49112	237034
25.49737	307321
25.50362	413554
25.50988	505038
25.51613	553191
25.52238	499243
25.52865	408665
25.53490	383863
25.54115	431035
25.54742	526029
25.55367	588971
25.55992	530317
25.56618	414796
25.57243	306220
25.57868	242182
25.58495	207563
25.59120	192044
25.59745	190185
25.60372	183557
25.60997	190877
25.61622	191620
25.62248	183514
25.62873	184944
25.63498	179409
25.64125	173627
25.64750	170198
25.65375	170149
25.66002	163063
25.66627	159250
25.67252	158506
25.67878	160047
25.68503	160232
25.69128	167036
25.69755	162926
25.70380	159527
25.71005	157845
25.71632	158886
25.72257	154592
25.72882	153039
25.73507	150684
25.74133	153405
25.74758	155990
25.75383	159390
25.76010	159235
25.76635	157773
25.77260	156573
25.77887	155168
25.78512	154984
25.79137	154509
25.79763	149754
25.80388	149826
25.81013	147862
25.81640	145866
25.82265	146331
25.82890	144237
25.83517	143859
25.84142	146755
25.84767	144918
25.85393	147661
25.86018	148781
25.86643	145053
25.87270	151077
25.87895	153348
25.88520	151321
25.89147	148917
25.89772	149609
25.90397	145664
25.91023	146692
25.91648	147069
25.92273	144777
25.92900	148204
25.93525	150385
25.94150	150874
25.94775	152231
25.95402	147187
25.96027	147518
25.96652	148915
25.97278	153080
25.97903	154369
25.98528	154960
25.99155	157392
25.99780	163940
26.00405	158881
26.01032	155435
26.01657	154407
26.02282	154863
26.02908	152774
26.03533	152445
26.04158	155863
26.04785	157791
26.05410	164732
26.06035	160223
26.06662	159476
26.07287	160761
26.07912	157316
26.08538	153355
26.09163	151649
26.09788	144274
26.10415	143027
26.11040	148341
26.11665	152048
26.12292	151418
26.12917	149247
26.13542	146731
26.14168	146118
26.14793	145760
26.15418	148344
26.16045	146467
26.16670	141353
26.17295	146532
26.17920	145161
26.18547	149311
26.19172	151483
26.19797	147019
26.20423	145812
26.21048	145565
26.21673	142640
26.22300	147817
26.22925	145957
26.23550	143554
26.24177	143359
26.24802	141272
26.25427	146940
26.26053	141080
26.26678	145877
26.27303	146917
26.27930	144638
26.28555	143293
26.29180	146679
26.29807	145098
26.30432	146394
26.31057	146496
26.31683	153312
26.32308	151472
26.32933	151158
26.33560	147023
26.34185	154957
26.34810	152373
26.35437	150657
26.36062	160948
26.36687	183077
26.37313	241881
26.37938	320695
26.38563	393639
26.39188	420675
26.39815	385863
26.40440	306968
26.41065	231309
26.41692	191675
26.42317	177248
26.42942	165525
26.43568	163398
26.44193	161896
26.44818	160554
26.45445	158856
26.46070	161750
26.46695	162947
26.47322	163016
26.47947	162855
26.48572	162323
26.49198	168771
26.49823	165690
26.50448	163401
26.51075	165226
26.51700	158836
26.52325	166850
26.52952	172156
26.53577	185950
26.54202	190638
26.54828	188596
26.55453	186168
26.56078	166201
26.56705	168572
26.57330	158295
26.57955	158308
26.58582	158777
26.59207	160081
26.59832	158535
26.60458	159350
26.61083	168418
26.61708	177986
26.62333	179911
26.62960	185032
26.63585	179926
26.64210	171730
26.64837	177705
26.65462	192012
26.66087	234023
26.66713	299226
26.67338	380711
26.67963	459211
26.68590	482354
26.69215	428488
26.69840	363669
26.70467	327520
26.71092	312415
26.71717	295410
26.72343	269530
26.72968	232268
26.73593	211706
26.74220	201886
26.74845	201046
26.75470	207725
26.76097	245209
26.76722	310053
26.77347	389060
26.77973	409686
26.78598	390753
26.79223	349652
26.79850	317150
26.80475	303350
26.81100	301726
26.81727	280571
26.82352	286468
26.82977	339280
26.83602	485172
26.84228	651700
26.84853	753196
26.85478	699522
26.86105	524863
26.86730	378787
26.87355	287983
26.87982	263873
26.88607	282273
26.89232	317198
26.89858	386705
26.90483	562825
26.91108	1091081
26.91735	2428668
26.92360	5537498
26.92985	9956380
26.93612	1.580684E+07
26.94237	2.012158E+07
26.94862	2.224615E+07
26.95488	1.723629E+07
26.96113	9212528
26.96738	3862364
26.97365	1911944
26.97990	1195912
26.98615	810657
26.99242	569993
26.99867	440309
27.00492	384939
27.01118	376215
27.01743	432294
27.02368	568728
27.02995	712721
27.03620	759395
27.04245	667402
27.04870	522408
27.05497	420152
27.06122	358635
27.06747	342718
27.07373	323097
27.07998	307443
27.08623	287654
27.09250	275137
27.09875	249866
27.10500	244914
27.11127	238125
27.11752	232347
27.12377	240710
27.13003	266256
27.13628	312149
27.14253	364101
27.14880	383149
27.15505	361951
27.16130	310664
27.16757	274566
27.17382	260892
27.18007	254631
27.18633	260182
27.19258	254862
27.19883	249004
27.20510	238063
27.21135	240023
27.21760	235121
27.22387	238681
27.23012	244113
27.23637	237735
27.24263	232301
27.24888	234133
27.25513	248673
27.26140	248023
27.26765	255154
27.27390	240223
27.28015	229917
27.28642	229658
27.29267	220873
27.29892	218415
27.30518	226286
27.31143	220467
27.31768	229246
27.32395	229726
27.33020	226350
27.33645	218982
27.34272	221157
27.34897	220405
27.35522	220574
27.36148	227814
27.36773	230162
27.37398	229384
27.38025	240373
27.38650	233220
27.39275	235253
27.39902	235171
27.40527	242368
27.41152	264967
27.41778	269495
27.42403	271523
27.43028	269314
27.43655	241836
27.44280	234620
27.44905	226698
27.45532	214511
27.46157	215570
27.46782	212136
27.47408	211049
27.48033	212866
27.48658	212777
27.49283	209566
27.49910	207786
27.50535	212488
27.51160	209818
27.51787	207270
27.52412	209795
27.53037	210907
27.53663	211531
27.54288	211201
27.54913	210887
27.55540	211542
27.56165	209792
27.56790	208489
27.57417	202946
27.58042	205266
27.58667	199501
27.59293	202475
27.59918	205531
27.60543	208383
27.61170	206241
27.61795	211340
27.62420	201208
27.63047	209137
27.63672	203044
27.64297	213803
27.64923	210995
27.65548	209497
27.66173	207777
27.66800	213479
27.67425	216056
27.68050	210236
27.68677	210565
27.69302	212644
27.69927	210361
27.70552	216963
27.71178	215677
27.71803	218386
27.72428	229282
27.73055	229700
27.73680	227949
27.74305	231672
27.74932	221533
27.75557	222761
27.76182	227357
27.76808	226831
27.77433	228613
27.78058	227437
27.78685	228517
27.79310	212820
27.79935	213657
27.80562	224892
27.81187	213206
27.81812	212988
27.82438	220151
27.83063	219513
27.83688	216199
27.84315	220377
27.84940	234948
27.85565	277012
27.86192	336604
27.86817	408334
27.87442	457629
27.88068	464276
27.88693	426797
27.89318	358737
27.89945	319528
27.90570	286033
27.91195	276853
27.91822	262930
27.92447	253378
27.93072	250010
27.93697	251902
27.94323	244752
27.94948	241534
27.95573	238996
27.96200	232895
27.96825	241460
27.97450	233608
27.98077	236879
27.98702	241397
27.99327	241168
27.99953	243724
28.00578	259217
28.01203	244642
28.01830	243952
28.02455	238453
28.03080	242567
28.03707	230184
28.04332	231794
28.04957	225191
28.05583	227544
28.06208	228547
28.06833	230966
28.07460	229591
28.08085	227125
28.08710	235142
28.09337	231119
28.09962	228649
28.10587	228258
28.11213	226896
28.11838	236839
28.12463	237191
28.13090	232161
28.13715	233571
28.14340	231294
28.14965	236965
28.15592	229439
28.16217	228066
28.16842	229872
28.17468	227062
28.18093	232652
28.18718	235416
28.19345	223979
28.19970	233237
28.20595	226763
28.21222	230254
28.21847	227932
28.22472	225881
28.23098	228735
28.23723	229737
28.24348	233726
28.24975	231045
28.25600	230606
28.26225	229286
28.26852	235757
28.27477	243000
28.28102	234270
28.28728	240551
28.29353	244422
28.29978	242493
28.30605	253367
28.31230	251829
28.31855	248229
28.32482	252948
28.33107	267984
28.33732	263790
28.34358	267019
28.34983	275120
28.35608	283838
28.36235	292922
28.36860	299634
28.37485	305487
28.38110	312624
28.38737	312373
28.39362	312518
28.39987	343588
28.40613	335399
28.41238	339981
28.41863	339329
28.42490	336312
28.43115	338355
28.43740	334117
28.44367	322651
28.44992	319602
28.45617	321569
28.46243	303542
28.46868	304106
28.47493	303302
28.48120	304194
28.48745	293502
28.49370	287019
28.49997	288809
28.50622	282335
28.51247	274986
28.51873	278121
28.52498	261517
28.53123	257302
28.53750	264051
28.54375	254180
28.55000	258770
28.55627	256188
28.56252	251135
28.56877	247509
28.57503	244004
28.58128	247071
28.58753	242689
28.59378	245078
28.60005	249495
28.60630	241369
28.61255	244495
28.61882	240897
28.62507	240259
28.63132	296433
28.63758	260371
28.64383	242012
28.65008	239151
28.65635	237817
28.66260	240761
28.66885	236164
28.67512	239013
28.68137	242948
28.68762	237402
28.69388	236578
28.70013	239815
28.70638	243740
28.71265	241919
28.71890	246833
28.72515	244013
28.73142	249053
28.73767	238844
28.74392	246030
28.75018	245418
28.75643	238928
28.76268	239820
28.76895	241594
28.77520	235204
28.78145	236133
28.78772	232485
28.79397	229860
28.80022	229197
28.80648	235296
28.81273	226977
28.81898	235788
28.82523	238540
28.83150	229937
28.83775	224410
28.84400	234229
28.85027	227215
28.85652	223195
28.86277	222974
28.86903	227999
28.87528	227340
28.88153	228952
28.88780	222674
28.89405	225082
28.90030	233229
28.90657	223818
28.91282	221970
28.91907	231933
28.92533	227870
28.93158	233577
28.93783	226608
28.94410	226007
28.95035	229455
28.95660	229050
28.96287	224409
28.96912	229468
28.97537	231766
28.98163	224346
28.98788	230814
28.99413	229645
29.00040	225710
29.00665	224724
29.01290	235283
29.01917	228212
29.02542	230689
29.03167	224331
29.03792	229513
29.04418	228192
29.05043	223441
29.05668	221673
29.06295	232431
29.06920	223613
29.07545	218953
29.08172	231344
29.08797	228428
29.09422	220175
29.10048	222091
29.10673	227118
29.11298	219049
29.11925	231355
29.12550	224469
29.13175	226819
29.13802	222595
29.14427	219785
29.15052	220195
29.15678	216931
29.16303	221639
29.16928	220942
29.17555	224581
29.18180	221216
29.18805	219835
29.19432	220807
29.20057	220747
29.20682	228254
29.21308	222398
29.21933	227286
29.22558	240632
29.23185	264273
29.23810	293598
29.24435	319443
29.25062	352956
29.25687	350444
29.26312	343573
29.26937	322516
29.27563	299975
29.28188	283065
29.28813	259602
29.29440	249821
29.30065	248914
29.30690	241262
29.31317	236975
29.31942	241266
29.32567	236290
29.33193	235167
29.33818	233901
29.34443	229172
29.35070	225895
29.35695	227970
29.36320	232210
29.36947	229060
29.37572	227071
29.38197	226061
29.38823	230003
29.39448	232400
29.40073	224852
29.40700	218653
29.41325	229648
29.41950	227100
29.42577	232700
29.43202	225168
29.43827	227959
29.44453	220100
29.45078	219951
29.45703	217854
29.46330	218619
29.46955	227274
29.47580	216904
29.48205	226444
29.48832	220383
29.49457	221067
29.50082	225331
29.50708	222385
29.51333	221130
29.51958	220103
29.52585	221858
29.53210	216190
29.53835	218290
29.54462	218965
29.55087	218174
29.55712	217346
29.56338	220126
29.56963	218035
29.57588	219682
29.58215	218860
29.58840	223167
29.59465	217428
29.60092	216453
29.60717	219927
29.61342	218782
29.61968	214891
29.62593	222277
29.63218	218094
29.63845	223969
29.64470	218851
29.65095	210667
29.65722	221872
29.66347	214803
29.66972	214024
29.67598	212611
29.68223	219396
29.68848	213783
29.69473	215182
29.70100	212346
29.70725	217021
29.71350	215823
29.71977	211372
29.72602	219385
29.73227	218494
29.73853	218615
29.74478	218541
29.75103	215345
29.75730	210449
29.76355	215129
29.76980	217313
29.77607	221877
29.78232	217755
29.78857	211276
29.79483	211112
29.80108	210181
29.80733	211327
29.81360	212827
29.81985	216434
29.82610	217193
29.83237	211442
29.83862	213688
29.84487	214452
29.85113	212522
29.85738	217772
29.86363	214068
29.86990	208488
29.87615	220054
29.88240	212014
29.88867	217158
29.89492	215231
29.90117	213278
29.90743	212938
29.91368	213903
29.91993	210716
29.92618	208504
29.93245	209581
29.93870	206992
29.94495	216636
29.95122	207910
29.95747	208953
29.96372	211374
29.96998	207875
29.97623	215895
29.98248	207779
29.98875	210206
29.99500	213658
30.00125	212892
30.00752	208785
30.01377	206206
30.02002	205471
30.02628	214007
30.03253	214008
30.03878	203503
30.04505	204743
30.05130	205546
30.05755	209151
30.06382	215635
30.07007	206046
30.07632	214061
30.08258	211628
30.08883	205540
30.09508	212352
30.10135	204345
30.10760	210896
30.11385	211362
30.12012	206635
30.12637	207659
30.13262	205916
30.13887	204159
30.14513	204280
30.15138	205606
30.15763	209729
30.16390	202994
30.17015	204095
30.17640	201081
30.18267	200382
30.18892	203499
30.19517	201998
30.20143	204323
30.20768	199651
30.21393	205445
30.22020	207042
30.22645	208232
30.23270	209458
30.23897	202530
30.24522	206689
30.25147	204611
30.25773	208358
30.26398	200355
30.27023	204076
30.27650	204221
30.28275	210921
30.28900	207731
30.29527	196654
30.30152	206216
30.30777	201130
30.31403	207059
30.32028	201954
30.32653	202130
30.33280	206235
30.33905	199329
30.34530	200838
30.35155	211044
30.35782	207211
30.36407	202082
30.37032	206001
30.37658	199314
30.38283	200322
30.38908	203468
30.39535	203644
30.40160	198179
30.40785	200889
30.41412	196136
30.42037	197543
30.42662	206828
30.43288	198017
30.43913	198680
30.44538	198420
30.45165	193149
30.45790	198900
30.46415	197656
30.47042	204086
30.47667	197593
30.48292	198417
30.48918	197875
30.49543	200258
30.50168	199265
30.50795	197984
30.51420	197308
30.52045	195576
30.52672	203977
30.53297	204041
30.53922	195369
30.54548	204426
30.55173	199910
30.55798	204724
30.56425	195037
30.57050	203649
30.57675	196041
30.58300	194692
30.58927	196931
30.59552	205993
30.60177	196791
30.60803	202981
30.61428	192741
30.62053	194969
30.62680	200279
30.63305	193898
30.63930	196824
30.64557	201905
30.65182	197757
30.65807	196930
30.66433	193342
30.67058	204138
30.67683	204546
30.68310	205386
30.68935	208942
30.69560	214046
30.70187	219122
30.70812	226636
30.71437	220549
30.72063	215770
30.72688	215105
30.73313	216854
30.73940	205532
30.74565	206056
30.75190	201626
30.75817	199751
30.76442	198412
30.77067	204221
30.77693	197501
30.78318	202088
30.78943	204458
30.79568	196767
30.80195	204814
30.80820	198682
30.81445	195325
30.82072	190734
30.82697	197928
30.83322	197906
30.83948	201625
30.84573	194540
30.85198	194351
30.85825	198445
30.86450	199407
30.87075	195552
30.87702	192204
30.88327	195305
30.88952	196328
30.89578	198944
30.90203	197574
30.90828	193475
30.91455	200553
30.92080	193326
30.92705	194803
30.93332	199932
30.93957	200406
30.94582	201035
30.95208	194767
30.95833	196314
30.96458	199426
30.97085	203532
30.97710	198607
30.98335	206291
30.98962	206646
30.99587	214093
31.00212	224425
31.00838	231534
31.01463	236626
31.02088	240061
31.02713	242069
31.03340	243217
31.03965	233339
31.04590	226193
31.05217	230107
31.05842	214989
31.06467	212738
31.07093	203666
31.07718	207157
31.08343	199850
31.08970	197178
31.09595	194853
31.10220	197241
31.10847	191220
31.11472	193098
31.12097	194263
31.12723	191694
31.13348	200689
31.13973	198064
31.14600	194377
31.15225	195482
31.15850	202082
31.16477	198048
31.17102	195389
31.17727	200981
31.18353	191420
31.18978	192966
31.19603	188907
31.20230	192030
31.20855	199848
31.21480	189015
31.22107	198105
31.22732	199561
31.23357	196884
31.23982	193047
31.24608	195663
31.25233	195273
31.25858	196878
31.26485	196124
31.27110	185826
31.27735	189352
31.28362	196054
31.28987	195571
31.29612	191323
31.30238	191504
31.30863	189455
31.31488	186542
31.32115	189109
31.32740	191937
31.33365	189860
31.33992	198238
31.34617	194515
31.35242	191667
31.35868	195914
31.36493	191161
31.37118	196795
31.37745	190660
31.38370	190440
31.38995	195853
31.39622	190385
31.40247	196836
31.40872	189361
31.41498	189517
31.42123	191749
31.42748	197028
31.43375	198368
31.44000	193409
31.44625	189698
31.45252	196945
31.45877	200598
31.46502	190172
31.47127	203471
31.47753	196439
31.48378	189701
31.49003	191125
31.49630	193661
31.50255	192589
31.50880	194044
31.51507	193307
31.52132	188317
31.52757	193518
31.53383	183107
31.54008	186389
31.54633	191315
31.55260	189084
31.55885	187356
31.56510	184728
31.57137	188496
31.57762	192557
31.58387	185881
31.59013	192860
31.59638	185693
31.60263	191907
31.60890	185356
31.61515	190151
31.62140	187118
31.62767	184678
31.63392	182084
31.64017	189821
31.64643	181396
31.65268	182568
31.65893	187956
31.66520	192491
31.67145	186756
31.67770	185080
31.68395	184424
31.69022	181962
31.69647	188400
31.70272	186910
31.70898	186792
31.71523	190042
31.72148	182568
31.72775	187710
31.73400	187483
31.74025	189258
31.74652	191356
31.75277	183917
31.75902	188627
31.76528	182651
31.77153	186271
31.77778	184924
31.78405	192306
31.79030	183647
31.79655	183905
31.80282	183453
31.80907	180814
31.81532	180922
31.82158	180565
31.82783	184911
31.83408	179331
31.84035	187495
31.84660	190942
31.85285	185264
31.85912	184945
31.86537	184255
31.87162	183014
31.87788	180199
31.88413	182385
31.89038	182465
31.89665	179518
31.90290	186304
31.90915	188775
31.91540	178760
31.92167	184115
31.92792	190218
31.93417	185141
31.94043	179944
31.94668	185026
31.95293	179311
31.95920	184639
31.96545	178322
31.97170	178856
31.97797	182621
31.98422	189649
31.99047	185051
31.99673	187059
32.00298	178348
32.00923	183929
32.01550	183102
32.02175	180922
32.02800	179071
32.03427	179922
32.04052	181376
32.04677	179450
32.05303	185067
32.05928	179994
32.06553	180491
32.07180	178298
32.07805	178152
32.08430	171721
32.09057	180724
32.09682	183404
32.10307	177620
32.10933	174654
32.11558	181179
32.12183	175543
32.12808	176364
32.13435	178908
32.14060	179744
32.14685	179243
32.15312	178560
32.15937	177186
32.16562	176613
32.17188	178924
32.17813	183473
32.18438	182946
32.19065	179116
32.19690	173418
32.20315	173709
32.20942	176407
32.21567	175014
32.22192	177531
32.22818	173913
32.23443	175352
32.24068	179678
32.24695	180724
32.25320	181882
32.25945	181637
32.26572	183857
32.27197	177119
32.27822	186050
32.28448	179727
32.29073	176249
32.29698	187049
32.30325	176864
32.30950	179998
32.31575	175118
32.32202	181044
32.32827	175111
32.33452	179826
32.34077	173872
32.34703	180985
32.35328	173477
32.35953	177118
32.36580	181039
32.37205	174180
32.37830	174288
32.38457	173404
32.39082	177800
32.39707	172670
32.40333	176342
32.40958	174886
32.41583	177809
32.42210	178406
32.42835	176015
32.43460	175778
32.44087	179894
32.44712	181866
32.45337	173026
32.45963	171921
32.46588	168614
32.47213	172315
32.47840	172450
32.48465	172075
32.49090	169036
32.49717	172276
32.50342	169221
32.50967	175183
32.51593	172857
32.52218	173777
32.52843	169998
32.53470	181445
32.54095	169506
32.54720	176485
32.55347	176078
32.55972	171899
32.56597	179320
32.57222	170523
32.57848	177626
32.58473	172594
32.59098	172539
32.59725	176040
32.60350	172101
32.60975	176731
32.61602	173510
32.62227	172492
32.62852	172934
32.63478	173874
32.64103	171293
32.64728	171556
32.65355	172059
32.65980	175022
32.66605	172058
32.67232	167450
32.67857	170467
32.68482	178189
32.69108	169434
32.69733	175221
32.70358	171233
32.70985	178567
32.71610	168171
32.72235	169760
32.72862	179179
32.73487	170052
32.74112	172992
32.74738	169874
32.75363	171929
32.75988	172224
32.76615	176385
32.77240	174472
32.77865	171127
32.78490	171387
32.79117	170299
32.79742	175663
32.80367	170411
32.80993	172856
32.81618	173020
32.82243	167554
32.82870	174595
32.83495	168295
32.84120	175505
32.84747	170420
32.85372	175815
32.85997	169936
32.86623	164007
32.87248	170239
32.87873	165909
32.88500	173041
32.89125	167572
32.89750	167926
32.90377	175045
32.91002	175239
32.91627	167255
32.92253	169009
32.92878	171661
32.93503	171337
32.94130	169420
32.94755	174516
32.95380	166136
32.96007	165468
32.96632	169905
32.97257	174886
32.97883	167844
32.98508	172841
32.99133	172216
32.99758	169306
33.00385	169043
33.01010	165606
33.01635	169029
33.02262	167946
33.02887	164075
33.03512	167795
33.04138	171274
33.04763	166546
33.05388	165940
33.06015	171251
33.06640	171802
33.07265	172382
33.07892	166548
33.08517	166497
33.09142	165672
33.09768	173079
33.10393	171517
33.11018	166893
33.11645	161842
33.12270	163483
33.12895	167200
33.13522	165943
33.14147	170750
33.14772	172764
33.15398	170047
33.16023	170671
33.16648	179068
33.17275	173854
33.17900	179052
33.18525	174889
33.19152	179193
33.19777	177199
33.20402	184127
33.21028	181775
33.21653	173985
33.22278	178734
33.22903	173920
33.23530	172525
33.24155	170184
33.24780	174977
33.25407	177900
33.26032	165101
33.26657	173644
33.27283	171300
33.27908	172416
33.28533	164944
33.29160	171972
33.29785	168892
33.30410	165205
33.31037	171468
33.31662	169687
33.32287	168419
33.32913	168765
33.33538	167156
33.34163	166441
33.34790	166152
33.35415	169289
33.36040	176889
33.36667	173953
33.37292	178860
33.37917	176962
33.38543	182025
33.39168	174460
33.39793	176339
33.40420	173507
33.41045	177447
33.41670	180438
33.42297	173889
33.42922	177406
33.43547	169917
33.44172	169310
33.44798	167322
33.45423	172434
33.46048	165048
33.46675	164263
33.47300	170485
33.47925	169151
33.48552	168660
33.49177	163717
33.49802	163522
33.50428	167338
33.51053	162321
33.51678	165974
33.52305	168239
33.52930	167210
33.53555	168231
33.54182	160782
33.54807	164236
33.55432	163038
33.56058	161467
33.56683	169692
33.57308	160703
33.57935	165394
33.58560	164169
33.59185	162602
33.59812	167395
33.60437	167923
33.61062	169512
33.61688	168574
33.62313	159452
33.62938	159846
33.63565	166520
33.64190	162653
33.64815	167881
33.65442	162536
33.66067	162013
33.66692	162283
33.67317	167218
33.67943	160113
33.68568	158931
33.69193	167814
33.69820	161230
33.70445	159715
33.71070	160839
33.71697	161544
33.72322	163289
33.72947	164981
33.73573	160863
33.74198	164654
33.74823	163017
33.75450	165575
33.76075	156258
33.76700	165334
33.77327	165459
33.77952	165284
33.78577	162501
33.79203	166246
33.79828	163275
33.80453	156683
33.81080	160505
33.81705	160315
33.82330	167183
33.82957	159527
33.83582	161768
33.84207	162607
33.84833	159114
33.85458	163664
33.86083	157191
33.86710	162005
33.87335	158619
33.87960	162326
33.88585	155575
33.89212	157200
33.89837	162956
33.90462	159006
33.91088	158557
33.91713	163800
33.92338	157882
33.92965	158867
33.93590	157854
33.94215	156242
33.94842	156992
33.95467	163926
33.96092	161279
33.96718	155557
33.97343	158604
33.97968	164077
33.98595	160196
33.99220	155489
33.99845	154161
34.00472	163647
34.01097	162569
34.01722	162052
34.02348	159537
34.02973	155163
34.03598	162412
34.04225	152570
34.04850	157740
34.05475	159613
34.06102	156053
34.06727	160112
34.07352	162925
34.07978	162114
34.08603	158403
34.09228	155530
34.09855	161309
34.10480	159551
34.11105	157070
34.11730	156464
34.12357	156634
34.12982	156530
34.13607	158970
34.14233	158307
34.14858	152074
34.15483	159692
34.16110	159125
34.16735	155648
34.17360	152742
34.17987	159220
34.18612	158433
34.19237	156961
34.19863	160246
34.20488	148820
34.21113	153185
34.21740	157177
34.22365	153543
34.22990	156191
34.23617	153189
34.24242	158681
34.24867	155806
34.25493	159015
34.26118	150484
34.26743	154438
34.27370	151514
34.27995	154102
34.28620	156279
34.29247	160161
34.29872	154155
34.30497	153355
34.31123	153852
34.31748	155632
34.32373	154101
34.32998	156466
34.33625	153941
34.34250	158890
34.34875	152807
34.35502	156509
34.36127	151348
34.36752	154089
34.37378	150593
34.38003	150369
34.38628	156945
34.39255	154244
34.39880	157901
34.40505	154440
34.41132	161457
34.41757	152947
34.42382	151149
34.43008	155486
34.43633	156886
34.44258	151273
34.44885	157161
34.45510	153995
34.46135	149363
34.46762	156337
34.47387	153743
34.48012	158150
34.48638	152634
34.49263	153667
34.49888	151772
34.50515	152994
34.51140	155761
34.51765	152419
34.52392	152371
34.53017	155509
34.53642	152164
34.54268	155216
34.54893	154205
34.55518	148788
34.56143	151472
34.56770	152343
34.57395	152995
34.58020	155143
34.58647	152772
34.59272	153747
34.59897	153889
34.60523	152624
34.61148	153821
34.61773	150194
34.62400	150621
34.63025	153402
34.63650	151393
34.64277	151519
34.64902	151917
34.65527	156686
34.66153	150753
34.66778	154231
34.67403	156636
34.68030	151859
34.68655	151230
34.69280	155473
34.69907	152165
34.70532	151037
34.71157	150986
34.71783	151303
34.72408	153168
34.73033	149639
34.73660	152594
34.74285	156135
34.74910	153510
34.75537	154654
34.76162	150238
34.76787	151038
34.77412	149453
34.78038	155344
34.78663	152531
34.79288	148353
34.79915	150496
34.80540	151093
34.81165	149938
34.81792	148097
34.82417	156023
34.83042	155016
34.83668	154726
34.84293	150401
34.84918	146034
34.85545	147666
34.86170	149210
34.86795	153783
34.87422	152893
34.88047	146949
34.88672	153402
34.89298	148803
34.89923	153317
34.90548	149839
34.91175	153812
34.91800	151869
34.92425	149684
34.93052	148032
34.93677	154450
34.94302	149819
34.94928	150140
34.95553	148143
34.96178	149259
34.96805	146866
34.97430	148693
34.98055	150030
34.98680	153405
34.99307	152324
34.99932	150254
35.00557	146554
35.01183	151507
35.01808	146780
35.02433	147699
35.03060	149628
35.03685	148790
35.04310	144915
35.04937	144984
35.05562	151896
35.06187	150051
35.06813	151329
35.07438	144894
35.08063	150280
35.08690	147932
35.09315	146541
35.09940	147204
35.10567	147023
35.11192	145502
35.11817	144094
35.12443	148280
35.13068	144699
35.13693	146814
35.14320	146013
35.14945	147425
35.15570	143609
35.16197	144699
35.16822	142805
35.17447	146254
35.18073	146797
35.18698	142403
35.19323	150361
35.19950	145756
35.20575	151344
35.21200	146621
35.21825	147057
35.22452	148548
35.23077	152168
35.23702	145952
35.24328	144811
35.24953	147474
35.25578	148022
35.26205	143793
35.26830	148772
35.27455	150841
35.28082	146828
35.28707	149856
35.29332	144845
35.29958	147109
35.30583	151128
35.31208	148930
35.31835	141929
35.32460	149434
35.33085	146690
35.33712	150173
35.34337	146677
35.34962	151437
35.35588	143649
35.36213	142739
35.36838	143107
35.37465	146673
35.38090	143152
35.38715	162955
35.39342	162413
35.39967	147178
35.40592	143143
35.41218	145352
35.41843	149812
35.42468	145156
35.43093	147923
35.43720	147871
35.44345	146672
35.44970	148014
35.45597	146366
35.46222	145062
35.46847	147075
35.47473	142355
35.48098	146280
35.48723	146423
35.49350	150289
35.49975	150513
35.50600	141445
35.51227	149142
35.51852	143781
35.52477	143029
35.53103	141199
35.53728	145270
35.54353	143531
35.54980	142334
35.55605	148702
35.56230	146328
35.56857	145442
35.57482	143751
35.58107	142873
35.58733	151319
35.59358	146836
35.59983	142892
35.60610	143002
35.61235	139169
35.61860	146412
35.62487	146073
35.63112	148607
35.63737	145186
35.64362	144070
35.64988	142116
35.65613	148695
35.66238	147427
35.66865	145627
35.67490	142722
35.68115	142490
35.68742	148075
35.69367	144416
35.69992	140783
35.70618	142019
35.71243	143450
35.71868	141096
35.72495	142350
35.73120	142556
35.73745	142353
35.74372	142074
35.74997	148179
35.75622	141602
35.76248	139152
35.76873	141435
35.77498	142641
35.78125	141208
35.78750	145645
35.79375	142323
35.80002	144539
35.80627	143113
35.81252	143964
35.81878	146556
35.82503	138126
35.83128	144631
35.83755	142014
35.84380	144767
35.85005	141899
35.85632	140445
35.86257	143128
35.86882	141887
35.87507	144304
35.88133	146636
35.88758	141846
35.89383	140084
35.90010	141236
35.90635	146698
35.91260	142256
35.91887	141679
35.92512	142799
35.93137	140661
35.93763	138746
35.94388	140496
35.95013	139839
35.95640	142874
35.96265	141723
35.96890	142572
35.97517	139082
35.98142	138370
35.98767	140260
35.99393	143359
36.00018	141114
36.00643	141766
36.01270	145452
36.01895	144387
36.02520	139765
36.03147	140371
36.03772	138132
36.04397	140514
36.05023	143439
36.05648	146577
36.06273	139496
36.06900	135054
36.07525	142378
36.08150	137250
36.08777	138693
36.09402	137930
36.10027	140016
36.10652	139720
36.11278	138872
36.11903	140486
36.12528	139878
36.13155	146993
36.13780	145406
36.14405	141736
36.15032	137563
36.15657	143121
36.16282	135868
36.16908	147381
36.17533	138946
36.18158	138851
36.18785	140942
36.19410	137612
36.20035	137254
36.20662	138489
36.21287	140403
36.21912	142288
36.22538	138974
36.23163	140826
36.23788	146907
36.24415	142158
36.25040	142551
36.25665	146296
36.26292	152995
36.26917	159190
36.27542	167345
36.28168	168897
36.28793	177588
36.29418	181673
36.30045	187591
36.30670	200820
36.31295	221225
36.31920	229242
36.32547	233559
36.33172	245725
36.33797	244301
36.34423	248249
36.35048	245724
36.35673	239690
36.36300	246120
36.36925	230140
36.37550	219098
36.38177	212818
36.38802	210772
36.39427	198834
36.40053	185343
36.40678	176403
36.41303	174336
36.41930	167579
36.42555	162958
36.43180	162494
36.43807	164348
36.44432	158643
36.45057	154443
36.45683	156624
36.46308	152058
36.46933	149587
36.47560	147195
36.48185	147575
36.48810	147782
36.49437	144866
36.50062	145963
36.50687	150317
36.51313	149107
36.51938	145478
36.52563	144250
36.53190	144359
36.53815	145472
36.54440	143803
36.55065	145237
36.55692	142969
36.56317	148667
36.56942	141608
36.57568	142308
36.58193	142466
36.58818	142708
36.59445	144790
36.60070	144732
36.60695	144482
36.61322	147372
36.61947	142411
36.62572	147136
36.63198	140949
36.63823	145530
36.64448	146868
36.65075	143213
36.65700	145760
36.66325	140305
36.66952	143770
36.67577	141086
36.68202	138465
36.68828	143039
36.69453	143218
36.70078	140085
36.70705	143270
36.71330	140636
36.71955	138756
36.72582	145954
36.73207	141904
36.73832	139507
36.74458	136812
36.75083	142215
36.75708	141599
36.76333	139320
36.76960	137932
36.77585	138448
36.78210	136601
36.78837	135927
36.79462	143067
36.80087	143852
36.80713	140671
36.81338	139506
36.81963	135218
36.82590	137320
36.83215	136657
36.83840	135953
36.84467	141932
36.85092	138602
36.85717	135332
36.86343	139914
36.86968	137675
36.87593	136402
36.88220	136432
36.88845	139930
36.89470	134973
36.90097	136852
36.90722	134752
36.91347	139552
36.91973	131807
36.92598	137073
36.93223	132897
36.93850	136896
36.94475	135180
36.95100	143356
36.95727	138401
36.96352	140842
36.96977	134329
36.97602	139800
36.98228	138649
36.98853	135029
36.99478	136256
37.00105	134254
37.00730	139990
37.01355	137949
37.01982	139589
37.02607	138451
37.03232	133478
37.03858	136068
37.04483	134081
37.05108	131983
37.05735	139372
37.06360	142614
37.06985	134708
37.07612	136397
37.08237	133053
37.08862	133401
37.09488	135654
37.10113	134752
37.10738	134248
37.11365	134892
37.11990	132150
37.12615	139731
37.13242	141429
37.13867	138845
37.14492	136287
37.15118	134139
37.15743	133994
37.16368	132129
37.16995	132380
37.17620	132280
37.18245	137157
37.18872	136177
37.19497	128920
37.20122	131000
37.20747	136503
37.21373	133013
37.21998	133798
37.22623	131455
37.23250	133883
37.23875	134128
37.24500	128356
37.25127	135123
37.25752	138240
37.26377	131461
37.27003	135723
37.27628	132167
37.28253	131546
37.28880	129864
37.29505	131428
37.30130	133741
37.30757	132793
37.31382	132290
37.32007	131177
37.32633	136739
37.33258	131667
37.33883	130719
37.34510	135662
37.35135	137316
37.35760	133022
37.36387	137831
37.37012	133845
37.37637	135209
37.38263	132952
37.38888	133550
37.39513	135173
37.40140	135527
37.40765	132799
37.41390	132588
37.42015	130776
37.42642	134867
37.43267	130863
37.43892	135437
37.44518	131309
37.45143	130554
37.45768	136279
37.46395	129515
37.47020	134374
37.47645	136903
37.48272	133687
37.48897	130690
