D:\MassHunter\GCMS\1\data\metastasis_lineages_3replicates_3runs_10302020\B_plate1_run3_10302020.D Sat Oct 31 10:05:54 2020
Start of data points
5.99350	162834
5.99975	172694
6.00600	169287
6.01227	177763
6.01852	181677
6.02477	186562
6.03103	176878
6.03728	183061
6.04353	199944
6.04980	207316
6.05605	202864
6.06230	192615
6.06857	191676
6.07482	197713
6.08107	221865
6.08733	207073
6.09358	194425
6.09983	221515
6.10610	374725
6.11235	804086
6.11860	1297799
6.12487	1283200
6.13112	842319
6.13737	494604
6.14363	341308
6.14988	289853
6.15613	306060
6.16240	461493
6.16865	813266
6.17490	1212714
6.18117	1270825
6.18742	928858
6.19367	588865
6.19993	404875
6.20618	319542
6.21243	257110
6.21870	241887
6.22495	229628
6.23120	229289
6.23745	225223
6.24372	210854
6.24997	203830
6.25622	189602
6.26248	177420
6.26873	174706
6.27498	179537
6.28125	185802
6.28750	194926
6.29375	194591
6.30002	190926
6.30627	216255
6.31252	345798
6.31878	624811
6.32503	1098202
6.33128	1895068
6.33755	4020566
6.34380	8547095
6.35005	1.384673E+07
6.35632	1.527831E+07
6.36257	9467711
6.36882	3039096
6.37508	674411
6.38133	289799
6.38758	239951
6.39385	221605
6.40010	226158
6.40635	268300
6.41262	379643
6.41887	595606
6.42512	793975
6.43138	880318
6.43763	984712
6.44388	1026230
6.45013	885283
6.45640	789761
6.46265	1621445
6.46890	4527759
6.47517	1.006377E+07
6.48142	1.753921E+07
6.48767	2.481552E+07
6.49393	3.122918E+07
6.50018	3.730314E+07
6.50643	4.261092E+07
6.51270	4.613972E+07
6.51895	4.723861E+07
6.52520	4.719051E+07
6.53147	4.64923E+07
6.53772	3.879305E+07
6.54397	5439383
6.55023	859446
6.55648	761973
6.56273	794405
6.56900	845899
6.57525	1181757
6.58150	2031807
6.58777	2809686
6.59402	2433417
6.60027	1325311
6.60653	590313
6.61278	364092
6.61903	321415
6.62530	303551
6.63155	303846
6.63780	304106
6.64407	322573
6.65032	317396
6.65657	299836
6.66282	285734
6.66908	301280
6.67533	387509
6.68158	477689
6.68785	480915
6.69410	391692
6.70035	327184
6.70662	300988
6.71287	297049
6.71912	307157
6.72538	329657
6.73163	348492
6.73788	352186
6.74415	360460
6.75040	378447
6.75665	391197
6.76292	398265
6.76917	389401
6.77542	385918
6.78168	390011
6.78793	399627
6.79418	405481
6.80045	433126
6.80670	454177
6.81295	521602
6.81922	558562
6.82547	567481
6.83172	539166
6.83798	523918
6.84423	526937
6.85048	564358
6.85675	626018
6.86300	635073
6.86925	582847
6.87552	542902
6.88177	582047
6.88802	735639
6.89427	934672
6.90053	992381
6.90678	826994
6.91303	643934
6.91930	544261
6.92555	491227
6.93180	470920
6.93807	476261
6.94432	462500
6.95057	466469
6.95683	441389
6.96308	434543
6.96933	414263
6.97560	403035
6.98185	410510
6.98810	397161
6.99437	390750
7.00062	363542
7.00687	347845
7.01313	345721
7.01938	362415
7.02563	456575
7.03190	732379
7.03815	1447723
7.04440	3074817
7.05067	5866151
7.05692	8249401
7.06317	7782513
7.06943	4657723
7.07568	1708215
7.08193	551602
7.08820	274117
7.09445	217094
7.10070	202614
7.10695	185616
7.11322	181833
7.11947	166511
7.12572	156913
7.13198	157337
7.13823	172418
7.14448	232216
7.15075	312444
7.15700	395779
7.16325	404329
7.16952	304242
7.17577	202649
7.18202	155553
7.18828	138947
7.19453	141320
7.20078	141467
7.20705	152974
7.21330	170717
7.21955	170210
7.22582	152601
7.23207	151068
7.23832	146977
7.24458	167129
7.25083	195901
7.25708	279054
7.26335	475981
7.26960	735141
7.27585	842649
7.28212	659413
7.28837	411865
7.29462	245035
7.30088	190890
7.30713	175660
7.31338	167982
7.31963	153976
7.32590	139411
7.33215	135206
7.33840	134592
7.34467	124927
7.35092	128363
7.35717	128688
7.36343	123928
7.36968	118970
7.37593	126543
7.38220	127757
7.38845	135607
7.39470	153282
7.40097	168668
7.40722	159477
7.41347	163197
7.41973	181064
7.42598	260883
7.43223	342050
7.43850	395210
7.44475	367539
7.45100	277314
7.45727	210472
7.46352	180765
7.46977	174508
7.47603	187870
7.48228	186656
7.48853	189545
7.49480	197335
7.50105	223012
7.50730	267997
7.51357	282960
7.51982	255767
7.52607	198569
7.53233	147686
7.53858	132115
7.54483	130441
7.55108	178354
7.55735	519708
7.56360	2107395
7.56985	6677051
7.57612	1.43133E+07
7.58237	2.284903E+07
7.58862	2.758669E+07
7.59488	2.482622E+07
7.60113	1.354512E+07
7.60738	5270853
7.61365	2949114
7.61990	2045406
7.62615	1276522
7.63242	841053
7.63867	560593
7.64492	378637
7.65118	275449
7.65743	220731
7.66368	203158
7.66995	211607
7.67620	259751
7.68245	341636
7.68872	406566
7.69497	382243
7.70122	285347
7.70748	220086
7.71373	223467
7.71998	310211
7.72625	419860
7.73250	454000
7.73875	396657
7.74502	318523
7.75127	259332
7.75752	215490
7.76377	181267
7.77003	164130
7.77628	172484
7.78253	177278
7.78880	182331
7.79505	178308
7.80130	170823
7.80757	167537
7.81382	166174
7.82007	173700
7.82633	225744
7.83258	319948
7.83883	381557
7.84510	360613
7.85135	281193
7.85760	244008
7.86387	280269
7.87012	335729
7.87637	351590
7.88263	295799
7.88888	234949
7.89513	201090
7.90140	186891
7.90765	197793
7.91390	213408
7.92017	220482
7.92642	221241
7.93267	206159
7.93893	201969
7.94518	211746
7.95143	245214
7.95770	326674
7.96395	393585
7.97020	386732
7.97647	331171
7.98272	331116
7.98897	373304
7.99522	534652
8.00148	882196
8.00773	1258845
8.01398	1780125
8.02025	2592741
8.02650	3005746
8.03275	2661411
8.03902	1768662
8.04527	1129449
8.05152	1049121
8.05778	1157067
8.06403	1061828
8.07028	740450
8.07655	442588
8.08280	316641
8.08905	370378
8.09532	495546
8.10157	609633
8.10782	655928
8.11408	744908
8.12033	970919
8.12658	1104737
8.13285	864397
8.13910	511164
8.14535	296805
8.15162	229626
8.15787	190468
8.16412	178339
8.17038	167476
8.17663	159543
8.18288	150720
8.18915	143827
8.19540	145159
8.20165	142124
8.20790	135931
8.21417	139247
8.22042	151587
8.22667	172193
8.23293	224712
8.23918	308521
8.24543	355242
8.25170	308268
8.25795	248077
8.26420	213223
8.27047	202378
8.27672	204750
8.28297	229123
8.28923	254389
8.29548	265484
8.30173	247387
8.30800	204007
8.31425	158715
8.32050	133408
8.32677	119895
8.33302	118851
8.33927	128284
8.34553	129651
8.35178	135718
8.35803	134980
8.36430	143844
8.37055	152704
8.37680	142094
8.38307	136349
8.38932	137255
8.39557	147555
8.40183	203616
8.40808	337796
8.41433	497586
8.42060	509063
8.42685	368328
8.43310	234815
8.43935	193903
8.44562	183225
8.45187	192809
8.45812	196505
8.46438	186277
8.47063	167547
8.47688	168792
8.48315	159952
8.48940	160628
8.49565	166079
8.50192	173230
8.50817	187358
8.51442	200508
8.52068	189160
8.52693	165652
8.53318	138575
8.53945	132449
8.54570	128687
8.55195	133480
8.55822	153183
8.56447	234529
8.57072	407611
8.57698	634112
8.58323	969703
8.58948	1451871
8.59575	1879248
8.60200	1933370
8.60825	1903686
8.61452	3185663
8.62077	7637139
8.62702	1.487697E+07
8.63328	2.003625E+07
8.63953	1.926013E+07
8.64578	1.152319E+07
8.65203	3798203
8.65830	883288
8.66455	312060
8.67080	240925
8.67707	222688
8.68332	216500
8.68957	227904
8.69583	248909
8.70208	257418
8.70833	249102
8.71460	269387
8.72085	266491
8.72710	248555
8.73337	214700
8.73962	201791
8.74587	219344
8.75213	239929
8.75838	220880
8.76463	187170
8.77090	144617
8.77715	132078
8.78340	136359
8.78967	134882
8.79592	124153
8.80217	117937
8.80843	118321
8.81468	117037
8.82093	117837
8.82720	145202
8.83345	286308
8.83970	795801
8.84597	2093614
8.85222	4401305
8.85847	6881448
8.86473	8181207
8.87098	7699831
8.87723	6465687
8.88348	6047557
8.88975	6495638
8.89600	6800094
8.90225	5267829
8.90852	2085966
8.91477	669732
8.92102	315896
8.92728	215342
8.93353	180928
8.93978	169936
8.94605	171201
8.95230	179071
8.95855	215407
8.96482	267741
8.97107	320835
8.97732	364713
8.98358	375098
8.98983	403473
8.99608	503330
9.00235	702717
9.00860	944303
9.01485	1066119
9.02112	930637
9.02737	685091
9.03362	663085
9.03988	1108831
9.04613	1893030
9.05238	2297000
9.05865	1790153
9.06490	913332
9.07115	429765
9.07742	259824
9.08367	223611
9.08992	215960
9.09617	223105
9.10243	231377
9.10868	220737
9.11493	203819
9.12120	176364
9.12745	172410
9.13370	204648
9.13997	244815
9.14622	280793
9.15247	275536
9.15873	289225
9.16498	335219
9.17123	373999
9.17750	377243
9.18375	394982
9.19000	466382
9.19627	554886
9.20252	533477
9.20877	397778
9.21503	267380
9.22128	206051
9.22753	177907
9.23380	178508
9.24005	216624
9.24630	277981
9.25257	319361
9.25882	288512
9.26507	222754
9.27133	165258
9.27758	135889
9.28383	133970
9.29010	156595
9.29635	212504
9.30260	319000
9.30885	426568
9.31512	530153
9.32137	623340
9.32762	688479
9.33388	663298
9.34013	709260
9.34638	1009239
9.35265	1336478
9.35890	1338154
9.36515	951768
9.37142	583144
9.37767	759126
9.38392	2507201
9.39018	7284367
9.39643	1.46683E+07
9.40268	1.944624E+07
9.40895	1.88467E+07
9.41520	1.192283E+07
9.42145	4219990
9.42772	1249645
9.43397	1459125
9.44022	4619696
9.44648	1.283807E+07
9.45273	2.402794E+07
9.45898	3.193153E+07
9.46525	3.234799E+07
9.47150	2.255627E+07
9.47775	9091848
9.48402	2384451
9.49027	703706
9.49652	357554
9.50278	258807
9.50903	231197
9.51528	225161
9.52155	226470
9.52780	225385
9.53405	221291
9.54030	223164
9.54657	217476
9.55282	213292
9.55907	208237
9.56533	206037
9.57158	218455
9.57783	243863
9.58410	248329
9.59035	237482
9.59660	226186
9.60287	224213
9.60912	242644
9.61537	280299
9.62163	280211
9.62788	247013
9.63413	202965
9.64040	171116
9.64665	170205
9.65290	178569
9.65917	174461
9.66542	171644
9.67167	182974
9.67793	426986
9.68418	1603353
9.69043	5392759
9.69670	1.17841E+07
9.70295	1.803301E+07
9.70920	1.932165E+07
9.71547	1.403228E+07
9.72172	6048321
9.72797	2637066
9.73423	3191178
9.74048	4422423
9.74673	4457858
9.75298	3027648
9.75925	1375266
9.76550	548872
9.77175	288323
9.77802	224875
9.78427	201015
9.79052	181486
9.79678	165224
9.80303	155546
9.80928	152144
9.81555	149074
9.82180	149036
9.82805	153289
9.83432	161725
9.84057	186186
9.84682	239784
9.85308	464430
9.85933	1442812
9.86558	4552700
9.87185	1.045213E+07
9.87810	1.653838E+07
9.88435	1.821859E+07
9.89062	1.349404E+07
9.89687	6111509
9.90312	2486402
9.90938	2048647
9.91563	2258872
9.92188	1742057
9.92815	930115
9.93440	420339
9.94065	246662
9.94692	216129
9.95317	245365
9.95942	346441
9.96567	609850
9.97193	976929
9.97818	1336959
9.98443	1574025
9.99070	1709864
9.99695	1739208
10.00320	1433037
10.00947	925102
10.01572	537524
10.02197	355782
10.02823	278452
10.03448	234253
10.04073	216322
10.04700	229133
10.05325	219951
10.05950	204947
10.06577	177294
10.07202	167756
10.07827	156000
10.08453	166601
10.09078	193177
10.09703	223744
10.10330	236131
10.10955	232781
10.11580	217604
10.12207	202430
10.12832	176646
10.13457	162473
10.14083	150576
10.14708	142726
10.15333	148706
10.15960	148932
10.16585	150588
10.17210	156623
10.17837	172474
10.18462	200314
10.19087	212130
10.19712	204149
10.20338	183920
10.20963	173654
10.21588	208720
10.22215	344082
10.22840	575054
10.23465	842073
10.24092	1001931
10.24717	985404
10.25342	778714
10.25968	528254
10.26593	372414
10.27218	302904
10.27845	255266
10.28470	258280
10.29095	333440
10.29722	415926
10.30347	406719
10.30972	324549
10.31598	246701
10.32223	225153
10.32848	239695
10.33475	314442
10.34100	386762
10.34725	370259
10.35352	292826
10.35977	220735
10.36602	206036
10.37228	194705
10.37853	183631
10.38478	161236
10.39105	147630
10.39730	139941
10.40355	132627
10.40980	124325
10.41607	128420
10.42232	140697
10.42857	154514
10.43483	164841
10.44108	165170
10.44733	174735
10.45360	181477
10.45985	183725
10.46610	184061
10.47237	186456
10.47862	245884
10.48487	365020
10.49113	467866
10.49738	447036
10.50363	335937
10.50990	230806
10.51615	167001
10.52240	159269
10.52867	180769
10.53492	237484
10.54117	298234
10.54743	318103
10.55368	281428
10.55993	233568
10.56620	212556
10.57245	220887
10.57870	249443
10.58497	269821
10.59122	265744
10.59747	301100
10.60373	646014
10.60998	2117720
10.61623	5779121
10.62250	1.166593E+07
10.62875	1.645646E+07
10.63500	1.652525E+07
10.64125	1.075845E+07
10.64752	4181609
10.65377	1185387
10.66002	378960
10.66628	236273
10.67253	221612
10.67878	240010
10.68505	245672
10.69130	216399
10.69755	189193
10.70382	163450
10.71007	157046
10.71632	160828
10.72258	178316
10.72883	189010
10.73508	197030
10.74135	204391
10.74760	200709
10.75385	195738
10.76012	185067
10.76637	184773
10.77262	192304
10.77888	200825
10.78513	196570
10.79138	193732
10.79765	190191
10.80390	204302
10.81015	255346
10.81642	386454
10.82267	493646
10.82892	488365
10.83518	359389
10.84143	249510
10.84768	196767
10.85393	191762
10.86020	209014
10.86645	212966
10.87270	217647
10.87897	212204
10.88522	201212
10.89147	200551
10.89773	211038
10.90398	229573
10.91023	237156
10.91650	224527
10.92275	206980
10.92900	208952
10.93527	211838
10.94152	198726
10.94777	179578
10.95403	179032
10.96028	258698
10.96653	702313
10.97280	2281132
10.97905	6394433
10.98530	1.347944E+07
10.99157	2.162818E+07
10.99782	2.720286E+07
11.00407	2.526737E+07
11.01033	1.480388E+07
11.01658	4989724
11.02283	1161305
11.02910	363669
11.03535	287421
11.04160	308580
11.04787	335999
11.05412	364011
11.06037	412727
11.06663	440326
11.07288	378276
11.07913	286780
11.08538	208617
11.09165	185043
11.09790	194072
11.10415	208752
11.11042	213996
11.11667	216449
11.12292	220378
11.12918	237179
11.13543	261604
11.14168	264250
11.14795	270708
11.15420	313532
11.16045	449235
11.16672	674303
11.17297	819600
11.17922	754816
11.18548	526592
11.19173	324079
11.19798	234878
11.20425	214909
11.21050	244283
11.21675	284410
11.22302	309883
11.22927	298185
11.23552	266287
11.24178	244245
11.24803	248528
11.25428	287957
11.26055	302124
11.26680	294739
11.27305	289363
11.27932	314924
11.28557	343644
11.29182	328664
11.29807	278334
11.30433	234637
11.31058	221467
11.31683	279306
11.32310	433495
11.32935	678736
11.33560	837094
11.34187	747699
11.34812	480153
11.35437	273385
11.36063	190404
11.36688	175168
11.37313	178355
11.37940	176187
11.38565	161449
11.39190	161945
11.39817	164230
11.40442	166839
11.41067	177114
11.41693	181769
11.42318	178809
11.42943	187619
11.43570	246124
11.44195	406202
11.44820	684631
11.45447	958529
11.46072	987821
11.46697	741689
11.47323	445689
11.47948	281446
11.48573	233635
11.49200	213198
11.49825	200592
11.50450	199325
11.51077	179705
11.51702	174172
11.52327	166749
11.52952	159796
11.53578	164985
11.54203	170741
11.54828	177706
11.55455	178289
11.56080	164126
11.56705	156600
11.57332	152321
11.57957	154535
11.58582	153231
11.59208	159427
11.59833	167487
11.60458	166867
11.61085	165779
11.61710	166840
11.62335	168272
11.62962	176894
11.63587	172304
11.64212	183643
11.64838	193745
11.65463	220450
11.66088	235436
11.66715	234362
11.67340	216301
11.67965	191686
11.68592	181932
11.69217	183094
11.69842	195059
11.70468	224808
11.71093	281606
11.71718	352979
11.72345	395228
11.72970	369842
11.73595	308608
11.74220	259184
11.74847	221834
11.75472	190707
11.76097	190594
11.76723	208486
11.77348	235683
11.77973	255717
11.78600	261940
11.79225	260839
11.79850	268291
11.80477	263645
11.81102	258293
11.81727	245964
11.82353	255278
11.82978	337552
11.83603	531657
11.84230	766973
11.84855	839749
11.85480	698469
11.86107	467995
11.86732	316097
11.87357	247207
11.87983	249772
11.88608	293357
11.89233	381180
11.89860	452628
11.90485	464691
11.91110	412657
11.91737	331967
11.92362	286082
11.92987	267198
11.93613	311898
11.94238	545399
11.94863	1199315
11.95488	2528434
11.96115	4752853
11.96740	7319798
11.97365	7984269
11.97992	5774949
11.98617	2795353
11.99242	1039529
11.99868	552815
12.00493	500896
12.01118	519012
12.01745	495099
12.02370	452283
12.02995	450181
12.03622	532453
12.04247	747004
12.04872	1105480
12.05498	1486583
12.06123	1725605
12.06748	1561861
12.07375	1098920
12.08000	699001
12.08625	524300
12.09252	490136
12.09877	482509
12.10502	473355
12.11128	410680
12.11753	339319
12.12378	282655
12.13005	262700
12.13630	256607
12.14255	246973
12.14882	237395
12.15507	226629
12.16132	222550
12.16758	219292
12.17383	226204
12.18008	242417
12.18633	261807
12.19260	318484
12.19885	411575
12.20510	533350
12.21137	702543
12.21762	874615
12.22387	982155
12.23013	921011
12.23638	752502
12.24263	653714
12.24890	713395
12.25515	1005570
12.26140	1470373
12.26767	2019949
12.27392	2395837
12.28017	2456065
12.28643	1909006
12.29268	1206895
12.29893	629084
12.30520	368583
12.31145	261581
12.31770	225674
12.32397	207195
12.33022	201481
12.33647	219682
12.34273	259420
12.34898	315021
12.35523	373381
12.36150	384141
12.36775	372521
12.37400	343327
12.38027	353704
12.38652	412935
12.39277	494892
12.39902	499027
12.40528	409804
12.41153	323584
12.41778	276928
12.42405	275215
12.43030	303570
12.43655	363713
12.44282	374332
12.44907	366183
12.45532	320864
12.46158	310377
12.46783	318247
12.47408	407456
12.48035	631195
12.48660	1027259
12.49285	1541439
12.49912	1797526
12.50537	1626882
12.51162	1128643
12.51788	632242
12.52413	342504
12.53038	269361
12.53665	293212
12.54290	354608
12.54915	421103
12.55542	413514
12.56167	364986
12.56792	372246
12.57418	553539
12.58043	989033
12.58668	1697565
12.59295	2499313
12.59920	2930953
12.60545	2690777
12.61170	2462614
12.61797	2949054
12.62422	4207285
12.63047	5981330
12.63673	8114911
12.64298	1.093698E+07
12.64923	1.467838E+07
12.65550	1.91041E+07
12.66175	2.498194E+07
12.66800	3.086077E+07
12.67427	3.446672E+07
12.68052	3.444316E+07
12.68677	2.98774E+07
12.69303	1.775065E+07
12.69928	4884952
12.70553	1189958
12.71180	724457
12.71805	918209
12.72430	1122288
12.73057	1169981
12.73682	1165664
12.74307	1235003
12.74933	1209662
12.75558	1019815
12.76183	806824
12.76810	643814
12.77435	525405
12.78060	461576
12.78687	445589
12.79312	448166
12.79937	422367
12.80563	392646
12.81188	361468
12.81813	343048
12.82440	372740
12.83065	403916
12.83690	421737
12.84315	410813
12.84942	389785
12.85567	381468
12.86192	388229
12.86818	380480
12.87443	385163
12.88068	399320
12.88695	525486
12.89320	806600
12.89945	1136517
12.90572	1287411
12.91197	1191406
12.91822	977215
12.92448	759546
12.93073	550459
12.93698	400467
12.94325	313355
12.94950	278261
12.95575	260802
12.96202	254800
12.96827	245807
12.97452	237062
12.98078	236234
12.98703	248671
12.99328	270110
12.99955	287551
13.00580	322988
13.01205	356826
13.01832	406960
13.02457	493453
13.03082	676692
13.03708	884471
13.04333	965803
13.04958	775450
13.05583	565482
13.06210	484311
13.06835	696925
13.07460	1345256
13.08087	2638676
13.08712	4047805
13.09337	4798271
13.09963	3930231
13.10588	2293990
13.11213	1109934
13.11840	627749
13.12465	457349
13.13090	393440
13.13717	366195
13.14342	368038
13.14967	370431
13.15593	351879
13.16218	336339
13.16843	318020
13.17470	292600
13.18095	265944
13.18720	247050
13.19347	238323
13.19972	232203
13.20597	227897
13.21223	231822
13.21848	239789
13.22473	258297
13.23100	290237
13.23725	320360
13.24350	348013
13.24977	354708
13.25602	344239
13.26227	372313
13.26853	387208
13.27478	390904
13.28103	367184
13.28728	361903
13.29355	407921
13.29980	530330
13.30605	737251
13.31232	945690
13.31857	986849
13.32482	770642
13.33108	508918
13.33733	349569
13.34358	317914
13.34985	328691
13.35610	343780
13.36235	337608
13.36862	312870
13.37487	283597
13.38112	257930
13.38738	251574
13.39363	239188
13.39988	238354
13.40615	229181
13.41240	245250
13.41865	257656
13.42492	281504
13.43117	327761
13.43742	380178
13.44368	405882
13.44993	403907
13.45618	356076
13.46245	318646
13.46870	282786
13.47495	266693
13.48122	267664
13.48747	274713
13.49372	282187
13.49997	276641
13.50623	283597
13.51248	282176
13.51873	301464
13.52500	319365
13.53125	349613
13.53750	395324
13.54377	505586
13.55002	718327
13.55627	1041424
13.56253	1256051
13.56878	1078171
13.57503	789889
13.58130	585064
13.58755	579666
13.59380	747997
13.60007	1046626
13.60632	1305344
13.61257	1399166
13.61883	1186569
13.62508	901233
13.63133	684992
13.63760	531409
13.64385	434698
13.65010	396096
13.65637	373771
13.66262	373415
13.66887	360507
13.67513	355588
13.68138	372152
13.68763	394830
13.69390	429177
13.70015	443429
13.70640	416158
13.71267	375517
13.71892	342737
13.72517	326413
13.73142	335317
13.73768	341811
13.74393	358261
13.75018	417486
13.75645	606782
13.76270	1046730
13.76895	1498139
13.77522	1608309
13.78147	1266696
13.78772	799853
13.79398	610136
13.80023	858400
13.80648	1727467
13.81275	3384712
13.81900	5956901
13.82525	9972080
13.83152	1.550936E+07
13.83777	2.23879E+07
13.84402	2.564288E+07
13.85028	2.170501E+07
13.85653	1.042143E+07
13.86278	2787209
13.86905	688504
13.87530	389745
13.88155	465334
13.88782	819876
13.89407	1617241
13.90032	3121505
13.90658	5858493
13.91283	9219500
13.91908	1.24291E+07
13.92535	1.242488E+07
13.93160	8177807
13.93785	3384314
13.94410	1014542
13.95037	359762
13.95662	252907
13.96287	240735
13.96913	239223
13.97538	246044
13.98163	255816
13.98790	260662
13.99415	271116
14.00040	285570
14.00667	304139
14.01292	352673
14.01917	371342
14.02543	337654
14.03168	280687
14.03793	221551
14.04420	194707
14.05045	192538
14.05670	213675
14.06297	236148
14.06922	274762
14.07547	307562
14.08173	298579
14.08798	274257
14.09423	245403
14.10050	211300
14.10675	198963
14.11300	190704
14.11927	192801
14.12552	201454
14.13177	201289
14.13803	200482
14.14428	183718
14.15053	178577
14.15678	180617
14.16305	189130
14.16930	188384
14.17555	179148
14.18182	169464
14.18807	166583
14.19432	169808
14.20058	180378
14.20683	197980
14.21308	241278
14.21935	308714
14.22560	408490
14.23185	512605
14.23812	509598
14.24437	442791
14.25062	321100
14.25688	260099
14.26313	291673
14.26938	419620
14.27565	649463
14.28190	852428
14.28815	807255
14.29442	581224
14.30067	396996
14.30692	312800
14.31318	288867
14.31943	319615
14.32568	394166
14.33195	468887
14.33820	474653
14.34445	385595
14.35072	307339
14.35697	258530
14.36322	239564
14.36948	234220
14.37573	241527
14.38198	256662
14.38823	288510
14.39450	359120
14.40075	523805
14.40700	929998
14.41327	1996228
14.41952	3726273
14.42577	5485908
14.43203	6037733
14.43828	4887288
14.44453	2922729
14.45080	1740319
14.45705	1259834
14.46330	1090299
14.46957	1057615
14.47582	1191181
14.48207	1321369
14.48833	1239487
14.49458	990719
14.50083	688199
14.50710	450858
14.51335	345317
14.51960	336249
14.52587	357505
14.53212	381175
14.53837	366589
14.54463	328188
14.55088	297950
14.55713	286140
14.56340	279537
14.56965	286223
14.57590	289832
14.58217	288216
14.58842	264855
14.59467	241761
14.60092	238667
14.60718	241640
14.61343	258808
14.61968	253507
14.62595	259671
14.63220	279692
14.63845	330291
14.64472	444270
14.65097	562832
14.65722	605087
14.66348	524851
14.66973	425228
14.67598	376875
14.68225	377236
14.68850	433586
14.69475	537696
14.70102	685623
14.70727	814629
14.71352	821241
14.71978	811835
14.72603	975363
14.73228	1437748
14.73855	2150365
14.74480	2776241
14.75105	3111251
14.75732	2954471
14.76357	2828730
14.76982	2565807
14.77608	1736470
14.78233	939087
14.78858	488449
14.79485	378331
14.80110	425720
14.80735	547747
14.81362	658965
14.81987	674132
14.82612	542789
14.83237	360841
14.83863	256434
14.84488	224695
14.85113	232828
14.85740	257385
14.86365	319555
14.86990	366582
14.87617	387661
14.88242	337645
14.88867	296494
14.89493	268405
14.90118	263201
14.90743	302840
14.91370	423126
14.91995	592723
14.92620	755627
14.93247	790384
14.93872	722805
14.94497	585882
14.95123	484761
14.95748	474349
14.96373	679106
14.97000	1130619
14.97625	1936593
14.98250	2679103
14.98877	2761366
14.99502	2046083
15.00127	1182822
15.00753	590346
15.01378	378612
15.02003	318220
15.02630	296628
15.03255	289353
15.03880	297417
15.04505	326776
15.05132	356472
15.05757	380757
15.06382	384998
15.07008	373205
15.07633	361931
15.08258	351155
15.08885	375632
15.09510	418445
15.10135	478843
15.10762	525767
15.11387	566600
15.12012	641995
15.12638	794580
15.13263	959639
15.13888	1141124
15.14515	1305683
15.15140	1407432
15.15765	1715655
15.16392	2776017
15.17017	4799184
15.17642	7220170
15.18268	8060356
15.18893	6108967
15.19518	3280551
15.20145	1364353
15.20770	636186
15.21395	384687
15.22022	291075
15.22647	245937
15.23272	223452
15.23898	221287
15.24523	238537
15.25148	252129
15.25773	257561
15.26400	275884
15.27025	274529
15.27650	251582
15.28277	243361
15.28902	224827
15.29527	234467
15.30153	239128
15.30778	246339
15.31403	268606
15.32030	317123
15.32655	385545
15.33280	414318
15.33907	374188
15.34532	307611
15.35157	270949
15.35783	271116
15.36408	309051
15.37033	349591
15.37660	319062
15.38285	266277
15.38910	221507
15.39537	200213
15.40162	190821
15.40787	187971
15.41413	192927
15.42038	221416
15.42663	282723
15.43290	380288
15.43915	484544
15.44540	580581
15.45167	675647
15.45792	733361
15.46417	768451
15.47042	667008
15.47668	526825
15.48293	374815
15.48918	291771
15.49545	262972
15.50170	282762
15.50795	366987
15.51422	590806
15.52047	1281628
15.52672	2841484
15.53298	5068819
15.53923	7669285
15.54548	9833533
15.55175	1.316465E+07
15.55800	1.724211E+07
15.56425	2.174498E+07
15.57052	2.083046E+07
15.57677	1.179814E+07
15.58302	3414426
15.58928	941363
15.59553	518364
15.60178	466738
15.60805	459867
15.61430	459195
15.62055	452622
15.62682	422581
15.63307	402470
15.63932	397116
15.64558	335284
15.65183	306057
15.65808	268127
15.66435	258885
15.67060	236738
15.67685	244522
15.68312	263255
15.68937	273123
15.69562	264376
15.70187	261918
15.70813	257286
15.71438	246373
15.72063	236486
15.72690	222546
15.73315	225954
15.73940	231680
15.74567	238437
15.75192	241666
15.75817	235689
15.76443	213461
15.77068	181284
15.77693	156678
15.78320	151495
15.78945	150117
15.79570	161244
15.80197	167866
15.80822	176860
15.81447	177309
15.82073	183447
15.82698	200721
15.83323	239122
15.83950	320115
15.84575	450309
15.85200	519162
15.85827	481746
15.86452	379365
15.87077	268125
15.87703	216208
15.88328	207694
15.88953	207499
15.89580	206150
15.90205	193578
15.90830	181357
15.91455	166828
15.92082	163472
15.92707	160842
15.93332	161939
15.93958	159944
15.94583	163461
15.95208	177295
15.95835	209720
15.96460	276064
15.97085	319921
15.97712	318512
15.98337	250718
15.98962	197612
15.99588	157355
16.00213	152449
16.00838	179552
16.01465	262131
16.02090	388938
16.02715	519652
16.03342	645770
16.03967	806607
16.04592	1128960
16.05218	1585782
16.05843	1996506
16.06468	1699799
16.07095	1152635
16.07720	848778
16.08345	956769
16.08972	1277287
16.09597	1437187
16.10222	1325599
16.10848	1177474
16.11473	1316031
16.12098	1969802
16.12725	2757295
16.13350	3141498
16.13975	2540041
16.14600	1465152
16.15227	721385
16.15852	381190
16.16477	294882
16.17103	275948
16.17728	284006
16.18353	277743
16.18980	307948
16.19605	393093
16.20230	448767
16.20857	427473
16.21482	370278
16.22107	437713
16.22733	831530
16.23358	1723780
16.23983	2803319
16.24610	3135384
16.25235	2427292
16.25860	1270365
16.26487	585279
16.27112	313503
16.27737	241669
16.28363	231663
16.28988	267366
16.29613	385776
16.30240	684418
16.30865	1179898
16.31490	1426826
16.32117	1244394
16.32742	789408
16.33367	430993
16.33993	268728
16.34618	219153
16.35243	213941
16.35868	222468
16.36495	220983
16.37120	212933
16.37745	195823
16.38372	179846
16.38997	169299
16.39622	169567
16.40248	167258
16.40873	168920
16.41498	176545
16.42125	186749
16.42750	207864
16.43375	284915
16.44002	524518
16.44627	866578
16.45252	1186175
16.45878	1225320
16.46503	1007892
16.47128	784044
16.47755	667026
16.48380	545632
16.49005	443237
16.49632	383606
16.50257	358591
16.50882	371694
16.51508	437831
16.52133	544703
16.52758	649491
16.53385	673777
16.54010	615459
16.54635	561883
16.55262	538490
16.55887	491273
16.56512	442110
16.57138	419210
16.57763	397274
16.58388	382785
16.59013	394233
16.59640	392801
16.60265	394030
16.60890	391698
16.61517	392867
16.62142	410096
16.62767	415153
16.63393	429238
16.64018	461719
16.64643	509009
16.65270	534983
16.65895	540923
16.66520	495947
16.67147	452958
16.67772	421527
16.68397	429536
16.69023	441055
16.69648	445411
16.70273	398459
16.70900	370940
16.71525	336104
16.72150	322900
16.72777	317622
16.73402	342199
16.74027	346636
16.74653	352151
16.75278	364577
16.75903	388295
16.76530	516902
16.77155	667602
16.77780	968216
16.78407	1285264
16.79032	1576103
16.79657	1819350
16.80282	2542890
16.80908	3814967
16.81533	5022595
16.82158	6115354
16.82785	7866662
16.83410	1.077302E+07
16.84035	1.43088E+07
16.84662	1.689182E+07
16.85287	1.813697E+07
16.85912	1.66144E+07
16.86538	1.224119E+07
16.87163	7888845
16.87788	5484399
16.88415	4544271
16.89040	4009944
16.89665	3698169
16.90292	3401908
16.90917	3234153
16.91542	3168298
16.92168	3357366
16.92793	4018868
16.93418	4834274
16.94045	5319118
16.94670	5557192
16.95295	5604598
16.95922	5216364
16.96547	4769821
16.97172	3915868
16.97798	3076163
16.98423	2343795
16.99048	1963003
16.99675	1891841
17.00300	2130641
17.00925	3259288
17.01552	6077340
17.02177	1.249906E+07
17.02802	2.048652E+07
17.03427	2.849274E+07
17.04053	3.484077E+07
17.04678	3.881592E+07
17.05303	4.3321E+07
17.05930	4.934735E+07
17.06555	5.219074E+07
17.07180	5.162487E+07
17.07807	4.947881E+07
17.08432	4.630441E+07
17.09057	4.42334E+07
17.09683	3.998133E+07
17.10308	3.827116E+07
17.10933	3.759194E+07
17.11560	3.54763E+07
17.12185	3.955846E+07
17.12810	4.287977E+07
17.13437	1.659913E+07
17.14062	1.59697E+07
17.14687	1.466937E+07
17.15313	1.386896E+07
17.15938	1.684129E+07
17.16563	2.540678E+07
17.17190	3.791714E+07
17.17815	4.785738E+07
17.18440	5.20452E+07
17.19067	5.234042E+07
17.19692	4.610093E+07
17.20317	1.914578E+07
17.20943	5713300
17.21568	5180052
17.22193	6594707
17.22820	7832209
17.23445	9426563
17.24070	1.333559E+07
17.24695	2.135222E+07
17.25322	3.358276E+07
17.25947	4.541289E+07
17.26572	5.25454E+07
17.27198	5.376493E+07
17.27823	5.307622E+07
17.28448	4.419947E+07
17.29075	1.863696E+07
17.29700	1.14246E+07
17.30325	1.588576E+07
17.30952	2.038742E+07
17.31577	1.931332E+07
17.32202	1.342926E+07
17.32828	6105517
17.33453	2552176
17.34078	1586874
17.34705	1383822
17.35330	1270836
17.35955	1218933
17.36582	1140614
17.37207	1094366
17.37832	1065120
17.38458	1119247
17.39083	1162343
17.39708	1217586
17.40335	1308419
17.40960	1509286
17.41585	1700448
17.42212	1647884
17.42837	1505406
17.43462	1377386
17.44088	1505541
17.44713	2118063
17.45338	3300307
17.45963	4693177
17.46590	5559499
17.47215	4609226
17.47840	2877819
17.48467	1652827
17.49092	1068703
17.49717	958538
17.50343	998453
17.50968	1118519
17.51593	1345693
17.52220	1624200
17.52845	1669012
17.53470	1429595
17.54097	1168579
17.54722	990318
17.55347	1055390
17.55973	1402143
17.56598	2374714
17.57223	4626162
17.57850	9401102
17.58475	1.540612E+07
17.59100	1.838866E+07
17.59727	1.476038E+07
17.60352	8038374
17.60977	3153248
17.61603	1643220
17.62228	1483871
17.62853	1618401
17.63480	1556622
17.64105	1296241
17.64730	985965
17.65357	804084
17.65982	733547
17.66607	677972
17.67233	648375
17.67858	654145
17.68483	660663
17.69108	690413
17.69735	719244
17.70360	728743
17.70985	718200
17.71612	679580
17.72237	631066
17.72862	587706
17.73488	567181
17.74113	594620
17.74738	619715
17.75365	659926
17.75990	691456
17.76615	745805
17.77242	855889
17.77867	1098804
17.78492	1449667
17.79118	2033777
17.79743	2978561
17.80368	4701734
17.80995	6227156
17.81620	7077364
17.82245	6702063
17.82872	5313659
17.83497	3428579
17.84122	2429925
17.84748	1815056
17.85373	1560968
17.85998	2031164
17.86625	4041671
17.87250	8882106
17.87875	1.598411E+07
17.88502	2.036747E+07
17.89127	1.966991E+07
17.89752	1.211191E+07
17.90377	5303231
17.91003	1954814
17.91628	1051847
17.92253	850878
17.92880	776838
17.93505	699610
17.94130	654168
17.94757	638210
17.95382	641487
17.96007	657993
17.96633	691163
17.97258	696158
17.97883	684550
17.98510	669475
17.99135	735934
17.99760	831996
18.00387	1010484
18.01012	1145014
18.01637	1174007
18.02263	1029785
18.02888	833278
18.03513	688217
18.04140	576201
18.04765	533449
18.05390	532515
18.06017	473907
18.06642	457068
18.07267	447549
18.07893	408991
18.08518	405778
18.09143	436030
18.09770	496187
18.10395	539369
18.11020	526178
18.11645	512841
18.12272	567562
18.12897	828430
18.13522	1593868
18.14148	3057843
18.14773	4174081
18.15398	4606012
18.16025	3309608
18.16650	1793369
18.17275	839212
18.17902	511830
18.18527	412231
18.19152	370152
18.19778	345659
18.20403	350386
18.21028	385759
18.21655	433730
18.22280	490341
18.22905	486622
18.23532	439836
18.24157	380626
18.24782	358128
18.25408	356320
18.26033	369555
18.26658	413501
18.27285	479022
18.27910	570360
18.28535	709414
18.29162	1062076
18.29787	1747490
18.30412	2360640
18.31038	2548853
18.31663	2104076
18.32288	1413010
18.32915	830487
18.33540	524480
18.34165	366227
18.34790	304487
18.35417	298151
18.36042	301708
18.36667	305994
18.37293	312610
18.37918	330231
18.38543	381261
18.39170	444717
18.39795	464501
18.40420	448051
18.41047	414479
18.41672	386509
18.42297	372793
18.42923	341849
18.43548	322458
18.44173	304346
18.44800	295903
18.45425	281315
18.46050	277462
18.46677	274429
18.47302	278063
18.47927	284361
18.48553	270150
18.49178	263339
18.49803	250857
18.50430	260340
18.51055	263355
18.51680	270309
18.52307	270707
18.52932	264167
18.53557	267318
18.54183	275798
18.54808	285049
18.55433	288469
18.56058	292563
18.56685	290323
18.57310	292472
18.57935	274125
18.58562	262651
18.59187	260749
18.59812	268844
18.60438	295759
18.61063	334456
18.61688	378918
18.62315	385143
18.62940	360927
18.63565	318900
18.64192	311609
18.64817	303153
18.65442	292616
18.66068	287832
18.66693	288385
18.67318	295209
18.67945	292635
18.68570	274914
18.69195	263520
18.69822	267290
18.70447	293551
18.71072	343908
18.71698	391039
18.72323	396585
18.72948	359578
18.73575	298678
18.74200	265040
18.74825	251770
18.75452	245664
18.76077	240937
18.76702	236965
18.77327	240622
18.77953	239649
18.78578	238371
18.79203	239570
18.79830	232948
18.80455	232029
18.81080	250189
18.81707	257796
18.82332	262421
18.82957	251646
18.83583	251984
18.84208	250671
18.84833	253455
18.85460	249443
18.86085	297514
18.86710	434095
18.87337	854999
18.87962	2099574
18.88587	4987241
18.89213	1.061309E+07
18.89838	1.848957E+07
18.90463	2.275417E+07
18.91090	2.115637E+07
18.91715	1.341407E+07
18.92340	5498433
18.92967	1743974
18.93592	666532
18.94217	486522
18.94843	460236
18.95468	410849
18.96093	330182
18.96720	270389
18.97345	234136
18.97970	222573
18.98597	214222
18.99222	219951
18.99847	222288
19.00472	242201
19.01098	256818
19.01723	259546
19.02348	252265
19.02975	251506
19.03600	250018
19.04225	270506
19.04852	297196
19.05477	303456
19.06102	288733
19.06728	254535
19.07353	238778
19.07978	237836
19.08605	259731
19.09230	269909
19.09855	295151
19.10482	302365
19.11107	293759
19.11732	292583
19.12358	285096
19.12983	296306
19.13608	301421
19.14235	308647
19.14860	298149
19.15485	271171
19.16112	250816
19.16737	241918
19.17362	223644
19.17988	209329
19.18613	216106
19.19238	222597
19.19865	228609
19.20490	225682
19.21115	218107
19.21740	215837
19.22367	213450
19.22992	203834
19.23617	201171
19.24243	195822
19.24868	196989
19.25493	195280
19.26120	181901
19.26745	181033
19.27370	185515
19.27997	189267
19.28622	192897
19.29247	201524
19.29873	199941
19.30498	196207
19.31123	191219
19.31750	182931
19.32375	175675
19.33000	176994
19.33627	183718
19.34252	203167
19.34877	234862
19.35503	255968
19.36128	265281
19.36753	246699
19.37380	232970
19.38005	221823
19.38630	227211
19.39257	239424
19.39882	264100
19.40507	284016
19.41133	292170
19.41758	276401
19.42383	247268
19.43010	221691
19.43635	216900
19.44260	216932
19.44885	226901
19.45512	229720
19.46137	216259
19.46762	202291
19.47388	205110
19.48013	195341
19.48638	199209
19.49265	208636
19.49890	220685
19.50515	240061
19.51142	245892
19.51767	260445
19.52392	258547
19.53018	258887
19.53643	249144
19.54268	255421
19.54895	277457
19.55520	308402
19.56145	313321
19.56772	293601
19.57397	260281
19.58022	220317
19.58648	204864
19.59273	191167
19.59898	189151
19.60525	191184
19.61150	188754
19.61775	186540
19.62402	186498
19.63027	213443
19.63652	239098
19.64278	249615
19.64903	247234
19.65528	237740
19.66153	231007
19.66780	249495
19.67405	301333
19.68030	363852
19.68657	417867
19.69282	401674
19.69907	357735
19.70533	345926
19.71158	360374
19.71783	361672
19.72410	321407
19.73035	290239
19.73660	267437
19.74287	264876
19.74912	250271
19.75537	244950
19.76163	235438
19.76788	247118
19.77413	252891
19.78040	251367
19.78665	243986
19.79290	249459
19.79917	270481
19.80542	288908
19.81167	280631
19.81793	247513
19.82418	216107
19.83043	194214
19.83670	186803
19.84295	179891
19.84920	194297
19.85547	219163
19.86172	250505
19.86797	282411
19.87423	299382
19.88048	284922
19.88673	256280
19.89298	233707
19.89925	270772
19.90550	445713
19.91175	1061763
19.91802	2470349
19.92427	4538347
19.93052	6162136
19.93678	5385513
19.94303	3349676
19.94928	1501299
19.95555	592148
19.96180	348376
19.96805	357135
19.97432	450699
19.98057	525625
19.98682	622244
19.99308	579988
19.99933	477197
20.00558	341243
20.01185	276078
20.01810	248263
20.02435	234904
20.03062	225005
20.03687	227332
20.04312	234318
20.04938	253647
20.05563	271730
20.06188	264361
20.06815	237615
20.07440	208425
20.08065	205948
20.08692	207981
20.09317	230148
20.09942	249542
20.10567	248610
20.11193	231972
20.11818	209258
20.12443	196334
20.13070	194327
20.13695	193354
20.14320	196917
20.14947	203886
20.15572	211040
20.16197	204035
20.16823	209685
20.17448	204784
20.18073	207497
20.18700	230328
20.19325	242472
20.19950	279151
20.20577	319988
20.21202	378193
20.21827	455521
20.22453	538704
20.23078	600680
20.23703	598093
20.24330	541904
20.24955	424779
20.25580	343847
20.26207	291534
20.26832	273139
20.27457	266344
20.28083	264470
20.28708	324024
20.29333	452933
20.29960	724971
20.30585	1025549
20.31210	1263417
20.31837	1085697
20.32462	733660
20.33087	481338
20.33712	356645
20.34338	321513
20.34963	327537
20.35588	332688
20.36215	308005
20.36840	288337
20.37465	271864
20.38092	268585
20.38717	265124
20.39342	262031
20.39968	253604
20.40593	255743
20.41218	273387
20.41845	313578
20.42470	430920
20.43095	712382
20.43722	1202242
20.44347	1760799
20.44972	2072922
20.45598	1667736
20.46223	1069973
20.46848	659996
20.47475	554639
20.48100	621093
20.48725	756728
20.49352	784555
20.49977	660618
20.50602	494807
20.51228	385646
20.51853	342935
20.52478	336112
20.53105	330816
20.53730	333876
20.54355	359213
20.54980	428587
20.55607	503296
20.56232	528306
20.56857	477814
20.57483	401760
20.58108	360027
20.58733	386803
20.59360	426735
20.59985	454284
20.60610	459917
20.61237	427007
20.61862	372968
20.62487	327356
20.63113	285534
20.63738	256770
20.64363	248937
20.64990	264360
20.65615	272498
20.66240	286572
20.66867	292745
20.67492	299416
20.68117	285622
20.68743	272561
20.69368	258625
20.69993	267758
20.70620	316694
20.71245	457982
20.71870	697307
20.72497	1003568
20.73122	1192234
20.73747	1059394
20.74373	780247
20.74998	553194
20.75623	491289
20.76248	609413
20.76875	820441
20.77500	975875
20.78125	956216
20.78752	741349
20.79377	561383
20.80002	449945
20.80628	392783
20.81253	328884
20.81878	299391
20.82505	289532
20.83130	297838
20.83755	317862
20.84382	355075
20.85007	354990
20.85632	344704
20.86258	330087
20.86883	314328
20.87508	305564
20.88135	302896
20.88760	317938
20.89385	340324
20.90012	351395
20.90637	369466
20.91262	372456
20.91888	371067
20.92513	381957
20.93138	464800
20.93765	657196
20.94390	1000402
20.95015	1309952
20.95642	1395196
20.96267	1119422
20.96892	856426
20.97518	663260
20.98143	549357
20.98768	454818
20.99393	396610
21.00020	431662
21.00645	560076
21.01270	773383
21.01897	932122
21.02522	889402
21.03147	701417
21.03773	533225
21.04398	436933
21.05023	390508
21.05650	361987
21.06275	339516
21.06900	331721
21.07527	349462
21.08152	385622
21.08777	393475
21.09403	360497
21.10028	317475
21.10653	289073
21.11280	285149
21.11905	291235
21.12530	294544
21.13157	283788
21.13782	265727
21.14407	248460
21.15033	244477
21.15658	245466
21.16283	244204
21.16910	262289
21.17535	292131
21.18160	302367
21.18787	296963
21.19412	278274
21.20037	280059
21.20662	287555
21.21288	293782
21.21913	298932
21.22538	278563
21.23165	284129
21.23790	287008
21.24415	289202
21.25042	305199
21.25667	301679
21.26292	277598
21.26918	271225
21.27543	288903
21.28168	332699
21.28795	376664
21.29420	391104
21.30045	360501
21.30672	306858
21.31297	275244
21.31922	268385
21.32548	309627
21.33173	357683
21.33798	353835
21.34425	321165
21.35050	293980
21.35675	313396
21.36302	355093
21.36927	420188
21.37552	458991
21.38178	438631
21.38803	371726
21.39428	310990
21.40055	262735
21.40680	271056
21.41305	256076
21.41930	281750
21.42557	325663
21.43182	345563
21.43807	344394
21.44433	317990
21.45058	312468
21.45683	375317
21.46310	467823
21.46935	514348
21.47560	536778
21.48187	447761
21.48812	363077
21.49437	324505
21.50063	312619
21.50688	309341
21.51313	291942
21.51940	248817
21.52565	213593
21.53190	194783
21.53817	192048
21.54442	193237
21.55067	194434
21.55693	191435
21.56318	185458
21.56943	209857
21.57570	237818
21.58195	250248
21.58820	269699
21.59447	286559
21.60072	298665
21.60697	298623
21.61323	246246
21.61948	215799
21.62573	183398
21.63200	166089
21.63825	159191
21.64450	150513
21.65075	146208
21.65702	147707
21.66327	152365
21.66952	161304
21.67578	172590
21.68203	183997
21.68828	191523
21.69455	192281
21.70080	184090
21.70705	161044
21.71332	158736
21.71957	154528
21.72582	156629
21.73208	157972
21.73833	163941
21.74458	166995
21.75085	171686
21.75710	175688
21.76335	181836
21.76962	179048
21.77587	181356
21.78212	198101
21.78838	226090
21.79463	249236
21.80088	261162
21.80715	260775
21.81340	281101
21.81965	265365
21.82592	254375
21.83217	238223
21.83842	222814
21.84468	223249
21.85093	229295
21.85718	239570
21.86343	265779
21.86970	289270
21.87595	290377
21.88220	267781
21.88847	233684
21.89472	208580
21.90097	224330
21.90723	278593
21.91348	340741
21.91973	358599
21.92600	323215
21.93225	278255
21.93850	256574
21.94477	240427
21.95102	221018
21.95727	198342
21.96353	183578
21.96978	182802
21.97603	203572
21.98230	224046
21.98855	241356
21.99480	243484
22.00107	233080
22.00732	217053
22.01357	216363
22.01983	215921
22.02608	214231
22.03233	223540
22.03860	249703
22.04485	280562
22.05110	299393
22.05737	326510
22.06362	346903
22.06987	364477
22.07613	384813
22.08238	397340
22.08863	360407
22.09488	307848
22.10115	274921
22.10740	252576
22.11365	250695
22.11992	246313
22.12617	252895
22.13242	246360
22.13868	233922
22.14493	210822
22.15118	205089
22.15745	200544
22.16370	208373
22.16995	211072
22.17622	207650
22.18247	209319
22.18872	212039
22.19498	212506
22.20123	221220
22.20748	208205
22.21375	190924
22.22000	190826
22.22625	193452
22.23252	200763
22.23877	222007
22.24502	272957
22.25128	353736
22.25753	451940
22.26378	510692
22.27005	484551
22.27630	432846
22.28255	388475
22.28882	372226
22.29507	362866
22.30132	357194
22.30757	316798
22.31383	276782
22.32008	255365
22.32633	240126
22.33260	235344
22.33885	252457
22.34510	293545
22.35137	425472
22.35762	788022
22.36387	1393567
22.37013	1962128
22.37638	1952578
22.38263	1439498
22.38890	810329
22.39515	437089
22.40140	278120
22.40767	236064
22.41392	239274
22.42017	244826
22.42643	252631
22.43268	270073
22.43893	307961
22.44520	366357
22.45145	463077
22.45770	616128
22.46397	716274
22.47022	705231
22.47647	617383
22.48273	460018
22.48898	349704
22.49523	303864
22.50150	286437
22.50775	273198
22.51400	249528
22.52027	239257
22.52652	238108
22.53277	283645
22.53902	409731
22.54528	573133
22.55153	782436
22.55778	840299
22.56405	730616
22.57030	561117
22.57655	425342
22.58282	341458
22.58907	295507
22.59532	268386
22.60158	254622
22.60783	242362
22.61408	228164
22.62035	215082
22.62660	212665
22.63285	234774
22.63912	253060
22.64537	274976
22.65162	293249
22.65788	282100
22.66413	275687
22.67038	279479
22.67665	309570
22.68290	343485
22.68915	354904
22.69542	320423
22.70167	278502
22.70792	244407
22.71418	216131
22.72043	216033
22.72668	209957
22.73295	214915
22.73920	222190
22.74545	230057
22.75170	240450
22.75797	248110
22.76422	256553
22.77047	277998
22.77673	315752
22.78298	556827
22.78923	1472552
22.79550	3976787
22.80175	8483158
22.80800	1.450553E+07
22.81427	1.982993E+07
22.82052	1.902886E+07
22.82677	1.280959E+07
22.83303	5330041
22.83928	1748052
22.84553	691965
22.85180	425787
22.85805	348286
22.86430	321684
22.87057	300935
22.87682	286367
22.88307	275425
22.88933	253333
22.89558	244697
22.90183	234681
22.90810	238131
22.91435	235647
22.92060	237400
22.92687	245034
22.93312	248215
22.93937	263234
22.94563	270589
22.95188	264945
22.95813	262190
22.96438	269371
22.97065	293539
22.97690	361608
22.98315	434393
22.98942	482779
22.99567	445521
23.00192	380279
23.00818	295019
23.01443	246304
23.02068	221644
23.02695	212689
23.03320	212107
23.03945	214554
23.04572	221129
23.05197	226482
23.05822	242991
23.06448	289255
23.07073	415610
23.07698	540538
23.08325	571083
23.08950	542183
23.09575	436198
23.10202	323089
23.10827	250081
23.11452	227303
23.12078	207613
23.12703	197927
23.13328	188558
23.13955	187343
23.14580	188374
23.15205	182105
23.15832	175430
23.16457	171926
23.17082	173180
23.17708	173940
23.18333	176878
23.18958	179868
23.19583	190062
23.20210	194286
23.20835	200883
23.21460	196492
23.22087	192007
23.22712	184271
23.23337	174633
23.23963	178144
23.24588	179915
23.25213	180320
23.25840	187125
23.26465	182411
23.27090	180976
23.27717	178413
23.28342	176112
23.28967	177576
23.29593	200130
23.30218	242593
23.30843	324424
23.31470	417632
23.32095	481589
23.32720	448613
23.33347	375726
23.33972	290607
23.34597	240447
23.35223	212967
23.35848	209757
23.36473	221466
23.37100	221550
23.37725	223619
23.38350	226107
23.38977	254943
23.39602	247052
23.40227	245375
23.40852	235364
23.41478	235692
23.42103	231928
23.42728	233756
23.43355	232311
23.43980	243603
23.44605	257311
23.45232	275259
23.45857	299736
23.46482	308562
23.47108	313655
23.47733	327498
23.48358	366987
23.48985	390685
23.49610	408842
23.50235	457553
23.50862	555690
23.51487	700764
23.52112	818156
23.52738	824470
23.53363	696787
23.53988	494404
23.54615	379098
23.55240	321290
23.55865	325177
23.56492	380951
23.57117	470359
23.57742	575661
23.58368	698946
23.58993	752544
23.59618	663148
23.60245	575712
23.60870	493594
23.61495	428112
23.62122	374453
23.62747	340598
23.63372	326710
23.63997	319497
23.64623	320279
23.65248	307883
23.65873	289898
23.66500	275569
23.67125	262185
23.67750	265055
23.68377	282207
23.69002	299840
23.69627	322370
23.70253	315898
23.70878	334650
23.71503	371003
23.72130	470039
23.72755	587877
23.73380	698875
23.74007	669589
23.74632	529171
23.75257	413885
23.75883	332649
23.76508	298227
23.77133	287920
23.77760	284190
23.78385	288047
23.79010	287805
23.79637	285793
23.80262	301393
23.80887	316466
23.81513	336933
23.82138	362096
23.82763	373041
23.83390	357631
23.84015	326991
23.84640	310766
23.85265	302347
23.85892	305502
23.86517	304739
23.87142	309764
23.87768	332883
23.88393	365221
23.89018	406550
23.89645	439696
23.90270	431864
23.90895	390729
23.91522	360669
23.92147	330093
23.92772	332998
23.93398	331786
23.94023	324762
23.94648	359750
23.95275	535984
23.95900	1160670
23.96525	2872616
23.97152	5416319
23.97777	9207082
23.98402	1.515311E+07
23.99028	2.201046E+07
23.99653	3.052924E+07
24.00278	3.635158E+07
24.00905	3.46997E+07
24.01530	2.587985E+07
24.02155	1.405422E+07
24.02782	5554330
24.03407	2465448
24.04032	1451328
24.04658	1094396
24.05283	913085
24.05908	799677
24.06533	762061
24.07160	823912
24.07785	888232
24.08410	930854
24.09037	945051
24.09662	1114571
24.10287	1941823
24.10913	3740445
24.11538	6234077
24.12163	8422863
24.12790	8006991
24.13415	5929891
24.14040	3400248
24.14667	1760929
24.15292	1012257
24.15917	720260
24.16543	611210
24.17168	590777
24.17793	617002
24.18420	719709
24.19045	936658
24.19670	1372121
24.20297	2466238
24.20922	5779031
24.21547	1.193399E+07
24.22173	1.998582E+07
24.22798	2.937501E+07
24.23423	3.638067E+07
24.24050	4.157366E+07
24.24675	4.438976E+07
24.25300	4.539512E+07
24.25927	4.497409E+07
24.26552	4.378827E+07
24.27177	4.288147E+07
24.27803	4.328128E+07
24.28428	1.958963E+07
24.29053	4390122
24.29678	2417902
24.30305	1903692
24.30930	1664111
24.31555	1416923
24.32182	1345470
24.32807	1219456
24.33432	1194884
24.34058	1297291
24.34683	1320441
24.35308	1320256
24.35935	1374517
24.36560	1401356
24.37185	1472018
24.37812	1524665
24.38437	1497387
24.39062	1393366
24.39688	1264579
24.40313	1149896
24.40938	1077163
24.41565	1010967
24.42190	1042418
24.42815	1201786
24.43442	1494117
24.44067	1782323
24.44692	2094055
24.45318	1975699
24.45943	1635006
24.46568	1204856
24.47195	913313
24.47820	762505
24.48445	689141
24.49072	652691
24.49697	625871
24.50322	619833
24.50947	597554
24.51573	600237
24.52198	583647
24.52823	571503
24.53450	570422
24.54075	565079
24.54700	555050
24.55327	544843
24.55952	520070
24.56577	515938
24.57203	521878
24.57828	560705
24.58453	594548
24.59080	588240
24.59705	550111
24.60330	510756
24.60957	458518
24.61582	435985
24.62207	403862
24.62833	380378
24.63458	381081
24.64083	387152
24.64710	377214
24.65335	367770
24.65960	352245
24.66587	339334
24.67212	326658
24.67837	358206
24.68463	382513
24.69088	395213
24.69713	384806
24.70340	384745
24.70965	383898
24.71590	389570
24.72215	391234
24.72842	372495
24.73467	344587
24.74092	328493
24.74718	328072
24.75343	326433
24.75968	328402
24.76595	342795
24.77220	344620
24.77845	357823
24.78472	358800
24.79097	343442
24.79722	319493
24.80348	306344
24.80973	279573
24.81598	273617
24.82225	270670
24.82850	269953
24.83475	263021
24.84102	253813
24.84727	252361
24.85352	253260
24.85978	250973
24.86603	262971
24.87228	287283
24.87855	325636
24.88480	377680
24.89105	442820
24.89732	464194
24.90357	463442
24.90982	406140
24.91608	382490
24.92233	398930
24.92858	428973
24.93485	415816
24.94110	427990
24.94735	479176
24.95360	583987
24.95987	669182
24.96612	629743
24.97237	536644
24.97863	424034
24.98488	356036
24.99113	323299
24.99740	308094
25.00365	299529
25.00990	293458
25.01617	292704
25.02242	291809
25.02867	296143
25.03493	303839
25.04118	310457
25.04743	302022
25.05370	289623
25.05995	286742
25.06620	280472
25.07247	273902
25.07872	275003
25.08497	274654
25.09123	272182
25.09748	271979
25.10373	276453
25.11000	272245
25.11625	287688
25.12250	313783
25.12877	346950
25.13502	393479
25.14127	387069
25.14753	362974
25.15378	304402
25.16003	274856
25.16628	260735
25.17255	266670
25.17880	307572
25.18505	376442
25.19132	436390
25.19757	434876
25.20382	391917
25.21008	327005
25.21633	273035
25.22258	246380
25.22885	228516
25.23510	218587
25.24135	221113
25.24762	219968
25.25387	219397
25.26012	217473
25.26638	215468
25.27263	224053
25.27888	248556
25.28515	307098
25.29140	393448
25.29765	471612
25.30392	497722
25.31017	455682
25.31642	369826
25.32268	293242
25.32893	251326
25.33518	242159
25.34145	228132
25.34770	223366
25.35395	214829
25.36022	223202
25.36647	227452
25.37272	224922
25.37898	231251
25.38523	240657
25.39148	275403
25.39773	369769
25.40400	515236
25.41025	716116
25.41650	810030
25.42277	696795
25.42902	531232
25.43527	412099
25.44153	344140
25.44778	312732
25.45403	291864
25.46030	276075
25.46655	257634
25.47280	252768
25.47907	253784
25.48532	279788
25.49157	339894
25.49783	419793
25.50408	489596
25.51033	524292
25.51660	491346
25.52285	422909
25.52910	424946
25.53537	517428
25.54162	656623
25.54787	783745
25.55413	748625
25.56038	571639
25.56663	400707
25.57290	303687
25.57915	262305
25.58540	242636
25.59167	234925
25.59792	234614
25.60417	241778
25.61042	251729
25.61668	247237
25.62293	235939
25.62918	225245
25.63545	215790
25.64170	214084
25.64795	208707
25.65422	204245
25.66047	198843
25.66672	199175
25.67298	200276
25.67923	204876
25.68548	203432
25.69175	204260
25.69800	202820
25.70425	206562
25.71052	203170
25.71677	202560
25.72302	194000
25.72928	197748
25.73553	203550
25.74178	204328
25.74805	208888
25.75430	215330
25.76055	209465
25.76682	204595
25.77307	211331
25.77932	198967
25.78558	197715
25.79183	198602
25.79808	193714
25.80435	189139
25.81060	191662
25.81685	187327
25.82312	179342
25.82937	184974
25.83562	182142
25.84187	185475
25.84813	189643
25.85438	185555
25.86063	194328
25.86690	195046
25.87315	190279
25.87940	186380
25.88567	190338
25.89192	185781
25.89817	181315
25.90443	187489
25.91068	189719
25.91693	185383
25.92320	189422
25.92945	191519
25.93570	195856
25.94197	199471
25.94822	203987
25.95447	191785
25.96073	190831
25.96698	189096
25.97323	199327
25.97950	196092
25.98575	202396
25.99200	207638
25.99827	200835
26.00452	192396
26.01077	190206
26.01703	192121
26.02328	192714
26.02953	192613
26.03580	195728
26.04205	200881
26.04830	203323
26.05455	203474
26.06082	203930
26.06707	199688
26.07332	193733
26.07958	195007
26.08583	191903
26.09208	188062
26.09835	187891
26.10460	181812
26.11085	185238
26.11712	190467
26.12337	186377
26.12962	183970
26.13588	183208
26.14213	182593
26.14838	179316
26.15465	176267
26.16090	177543
26.16715	185950
26.17342	193223
26.17967	185887
26.18592	195552
26.19218	185185
26.19843	183527
26.20468	183685
26.21095	186162
26.21720	183020
26.22345	185480
26.22972	184277
26.23597	179140
26.24222	185296
26.24848	183815
26.25473	184103
26.26098	183481
26.26725	185203
26.27350	180774
26.27975	177372
26.28600	182740
26.29227	176089
26.29852	191116
26.30477	183508
26.31103	183429
26.31728	184344
26.32353	188870
26.32980	187418
26.33605	184732
26.34230	187453
26.34857	195705
26.35482	195544
26.36107	222223
26.36733	267577
26.37358	334657
26.37983	401038
26.38610	446003
26.39235	414743
26.39860	344426
26.40487	261070
26.41112	229145
26.41737	211502
26.42363	212502
26.42988	208672
26.43613	204957
26.44240	199796
26.44865	201514
26.45490	202293
26.46117	200208
26.46742	196805
26.47367	206667
26.47993	205288
26.48618	207553
26.49243	208227
26.49868	206449
26.50495	210913
26.51120	206163
26.51745	207359
26.52372	222124
26.52997	238986
26.53622	251753
26.54248	246571
26.54873	240889
26.55498	222940
26.56125	204621
26.56750	198654
26.57375	201287
26.58002	202179
26.58627	199575
26.59252	202100
26.59878	208156
26.60503	214791
26.61128	235364
26.61755	237103
26.62380	238544
26.63005	234714
26.63632	222504
26.64257	220903
26.64882	251341
26.65508	315423
26.66133	464983
26.66758	670743
26.67385	869606
26.68010	897419
26.68635	782863
26.69262	622607
26.69887	534636
26.70512	474833
26.71137	433999
26.71763	374180
26.72388	314528
26.73013	283480
26.73640	264834
26.74265	256149
26.74890	269358
26.75517	320153
26.76142	412243
26.76767	538045
26.77393	605095
26.78018	584926
26.78643	485863
26.79270	430264
26.79895	409656
26.80520	402499
26.81147	375877
26.81772	362701
26.82397	418786
26.83023	570001
26.83648	759555
26.84273	871152
26.84900	816786
26.85525	627218
26.86150	469895
26.86777	363848
26.87402	341037
26.88027	378795
26.88653	463681
26.89278	563508
26.89903	788396
26.90530	1441488
26.91155	3065906
26.91780	6664734
26.92407	1.198189E+07
26.93032	1.921908E+07
26.93657	2.776717E+07
26.94282	3.065025E+07
26.94908	2.864687E+07
26.95533	1.774019E+07
26.96158	6916813
26.96785	3148718
26.97410	1843206
26.98035	1194579
26.98662	796277
26.99287	575978
26.99912	492587
27.00538	535750
27.01163	741694
27.01788	1208227
27.02415	1675290
27.03040	1930451
27.03665	1750865
27.04292	1273570
27.04917	837234
27.05542	620961
27.06168	535084
27.06793	494231
27.07418	455589
27.08045	419615
27.08670	378499
27.09295	336284
27.09922	305101
27.10547	282513
27.11172	279230
27.11798	320565
27.12423	328806
27.13048	404329
27.13675	498042
27.14300	557756
27.14925	523753
27.15550	417842
27.16177	335668
27.16802	283855
27.17427	279282
27.18053	278324
27.18678	274626
27.19303	262785
27.19930	256793
27.20555	247123
27.21180	260590
27.21807	260893
27.22432	257951
27.23057	250351
27.23683	246628
27.24308	251533
27.24933	266093
27.25560	277407
27.26185	277040
27.26810	259337
27.27437	249558
27.28062	238254
27.28687	235006
27.29313	235258
27.29938	232873
27.30563	230635
27.31190	232376
27.31815	234566
27.32440	226862
27.33067	232451
27.33692	231200
27.34317	232789
27.34943	232987
27.35568	244736
27.36193	248521
27.36818	242505
27.37445	242051
27.38070	235957
27.38695	237313
27.39322	246314
27.39947	267941
27.40572	299872
27.41198	317329
27.41823	340512
27.42448	310443
27.43075	284002
27.43700	253065
27.44325	247213
27.44952	229425
27.45577	220934
27.46202	219299
27.46828	211714
27.47453	214349
27.48078	215408
27.48705	213509
27.49330	223164
27.49955	217346
27.50582	215210
27.51207	210125
27.51832	208698
27.52458	208148
27.53083	210811
27.53708	219254
27.54335	216537
27.54960	220073
27.55585	210668
27.56212	204459
27.56837	200314
27.57462	207651
27.58088	203944
27.58713	206522
27.59338	210507
27.59963	214288
27.60590	211618
27.61215	209991
27.61840	210762
27.62467	217507
27.63092	220455
27.63717	208381
27.64343	213807
27.64968	215913
27.65593	211347
27.66220	215595
27.66845	216858
27.67470	222160
27.68097	224791
27.68722	216505
27.69347	222930
27.69973	216474
27.70598	221818
27.71223	232849
27.71850	240623
27.72475	242684
27.73100	244608
27.73727	240811
27.74352	233147
27.74977	231043
27.75603	239161
27.76228	242150
27.76853	238067
27.77480	238983
27.78105	234438
27.78730	228853
27.79357	226298
27.79982	218403
27.80607	226204
27.81232	222807
27.81858	216375
27.82483	225840
27.83108	228948
27.83735	231703
27.84360	263616
27.84985	333003
27.85612	455012
27.86237	618862
27.86862	727652
27.87488	727720
27.88113	639060
27.88738	501495
27.89365	412089
27.89990	350941
27.90615	311968
27.91242	300147
27.91867	288268
27.92492	263352
27.93118	260822
27.93743	264005
27.94368	261481
27.94995	248746
27.95620	247068
27.96245	253054
27.96872	245336
27.97497	246871
27.98122	253704
27.98748	254680
27.99373	264315
27.99998	266078
28.00625	258899
28.01250	257004
28.01875	251476
28.02500	244565
28.03127	251527
28.03752	239445
28.04377	236943
28.05003	240992
28.05628	242506
28.06253	234210
28.06880	241210
28.07505	231353
28.08130	232202
28.08757	232398
28.09382	234054
28.10007	234450
28.10633	231735
28.11258	234615
28.11883	237627
28.12510	242722
28.13135	246240
28.13760	241535
28.14387	232687
28.15012	238417
28.15637	236137
28.16263	233742
28.16888	237310
28.17513	235563
28.18140	229345
28.18765	239384
28.19390	236478
28.20017	239572
28.20642	238626
28.21267	231180
28.21893	236801
28.22518	237514
28.23143	242286
28.23770	243588
28.24395	246624
28.25020	240669
28.25645	250190
28.26272	242312
28.26897	251344
28.27522	255301
28.28148	253090
28.28773	266255
28.29398	268857
28.30025	278145
28.30650	281776
28.31275	283177
28.31902	288965
28.32527	289193
28.33152	298712
28.33778	301778
28.34403	303600
28.35028	322176
28.35655	333852
28.36280	329263
28.36905	343799
28.37532	339377
28.38157	345635
28.38782	340720
28.39408	336495
28.40033	327808
28.40658	327932
28.41285	335261
28.41910	322921
28.42535	324982
28.43162	314377
28.43787	315894
28.44412	302928
28.45038	294974
28.45663	292163
28.46288	287285
28.46913	286102
28.47540	285595
28.48165	280342
28.48790	275097
28.49417	263755
28.50042	268397
28.50667	264581
28.51293	265889
28.51918	261573
28.52543	260956
28.53170	258330
28.53795	256002
28.54420	261117
28.55047	257342
28.55672	247690
28.56297	248054
28.56923	250112
28.57548	246552
28.58173	245228
28.58800	246024
28.59425	244728
28.60050	247648
28.60677	246330
28.61302	240365
28.61927	250610
28.62553	241372
28.63178	250767
28.63803	244160
28.64430	244698
28.65055	246772
28.65680	248785
28.66307	242561
28.66932	238417
28.67557	247220
28.68183	238615
28.68808	244210
28.69433	247655
28.70058	238783
28.70685	240220
28.71310	245149
28.71935	243441
28.72562	247091
28.73187	247494
28.73812	242973
28.74438	239872
28.75063	246096
28.75688	241954
28.76315	239903
28.76940	229002
28.77565	244286
28.78192	234961
28.78817	235764
28.79442	232640
28.80068	238506
28.80693	230573
28.81318	240568
28.81945	230945
28.82570	232560
28.83195	239865
28.83822	232334
28.84447	236104
28.85072	239997
28.85698	231475
28.86323	228952
28.86948	231453
28.87575	236970
28.88200	234996
28.88825	239764
28.89452	230212
28.90077	230672
28.90702	239997
28.91327	230524
28.91953	229188
28.92578	239792
28.93203	224773
28.93830	234896
28.94455	233875
28.95080	231273
28.95707	237219
28.96332	237671
28.96957	232386
28.97583	238737
28.98208	229237
28.98833	229512
28.99460	240308
29.00085	237556
29.00710	232438
29.01337	232149
29.01962	231711
29.02587	238680
29.03213	230460
29.03838	230547
29.04463	231617
29.05090	229146
29.05715	231457
29.06340	228300
29.06967	235174
29.07592	236031
29.08217	237564
29.08843	227011
29.09468	223281
29.10093	226704
29.10720	234576
29.11345	226428
29.11970	231837
29.12597	227690
29.13222	228191
29.13847	230093
29.14472	230309
29.15098	228144
29.15723	224745
29.16348	235466
29.16975	231228
29.17600	221946
29.18225	231592
29.18852	234178
29.19477	226758
29.20102	237750
29.20728	243351
29.21353	257507
29.21978	292108
29.22605	330183
29.23230	369845
29.23855	425227
29.24482	459971
29.25107	467294
29.25732	454668
29.26358	402928
29.26983	361021
29.27608	326158
29.28235	290242
29.28860	282224
29.29485	267734
29.30112	260563
29.30737	254559
29.31362	258702
29.31988	266006
29.32613	264661
29.33238	260451
29.33865	272397
29.34490	275432
29.35115	269204
29.35740	257469
29.36367	241011
29.36992	239122
29.37617	241828
29.38243	240241
29.38868	234049
29.39493	238906
29.40120	237780
29.40745	230667
29.41370	228688
29.41997	232716
29.42622	230586
29.43247	227693
29.43873	225584
29.44498	237931
29.45123	234461
29.45750	226069
29.46375	229446
29.47000	230245
29.47627	232078
29.48252	229423
29.48877	225810
29.49503	226706
29.50128	222445
29.50753	235774
29.51380	230125
29.52005	228973
29.52630	224254
29.53257	218619
29.53882	228416
29.54507	228077
29.55133	230448
29.55758	227246
29.56383	228484
29.57010	229445
29.57635	221449
29.58260	221328
29.58885	229828
29.59512	230034
29.60137	222394
29.60762	227937
29.61388	228490
29.62013	222305
29.62638	230345
29.63265	218135
29.63890	220611
29.64515	231553
29.65142	224916
29.65767	221884
29.66392	221247
29.67018	218949
29.67643	216941
29.68268	225284
29.68895	224788
29.69520	221010
29.70145	218106
29.70772	221436
29.71397	219315
29.72022	219669
29.72648	218197
29.73273	215848
29.73898	224015
29.74525	224732
29.75150	216534
29.75775	216355
29.76402	216443
29.77027	214089
29.77652	224844
29.78278	218681
29.78903	218925
29.79528	222451
29.80153	223000
29.80780	222988
29.81405	217354
29.82030	218270
29.82657	223530
29.83282	222539
29.83907	216206
29.84533	214708
29.85158	215702
29.85783	221615
29.86410	223303
29.87035	216463
29.87660	220179
29.88287	224338
29.88912	214160
29.89537	216924
29.90163	213210
29.90788	222002
29.91413	217814
29.92040	216018
29.92665	225713
29.93290	223107
29.93917	217313
29.94542	212905
29.95167	219045
29.95793	220837
29.96418	213191
29.97043	220928
29.97670	221492
29.98295	213102
29.98920	214140
29.99547	217557
30.00172	218591
30.00797	221091
30.01422	222178
30.02048	216442
30.02673	220096
30.03298	216038
30.03925	211690
30.04550	220387
30.05175	221276
30.05802	220300
30.06427	219815
30.07052	210104
30.07678	218105
30.08303	214530
30.08928	213709
30.09555	213920
30.10180	211533
30.10805	210944
30.11432	213954
30.12057	212751
30.12682	212162
30.13308	207963
30.13933	214065
30.14558	217032
30.15185	210283
30.15810	213493
30.16435	209339
30.17062	207771
30.17687	217756
30.18312	216677
30.18938	212823
30.19563	209733
30.20188	215455
30.20815	208687
30.21440	212862
30.22065	216422
30.22692	206956
30.23317	204012
30.23942	211183
30.24567	214662
30.25193	208095
30.25818	205719
30.26443	208956
30.27070	208059
30.27695	213405
30.28320	211389
30.28947	213085
30.29572	206638
30.30197	207669
30.30823	205083
30.31448	210095
30.32073	209997
30.32700	201065
30.33325	204457
30.33950	207542
30.34577	213848
30.35202	208371
30.35827	206802
30.36453	215803
30.37078	210380
30.37703	203542
30.38330	210595
30.38955	206441
30.39580	209456
30.40207	209640
30.40832	212241
30.41457	208778
30.42083	211343
30.42708	202984
30.43333	204982
30.43960	210917
30.44585	204256
30.45210	209869
30.45835	210017
30.46462	200619
30.47087	206827
30.47712	209428
30.48338	207770
30.48963	202522
30.49588	205571
30.50215	203047
30.50840	205586
30.51465	205719
30.52092	209059
30.52717	203585
30.53342	210932
30.53968	202694
30.54593	200381
30.55218	209444
30.55845	204153
30.56470	202006
30.57095	208390
30.57722	203308
30.58347	203010
30.58972	203096
30.59598	199453
30.60223	206711
30.60848	208821
30.61475	202648
30.62100	200462
30.62725	208548
30.63352	201842
30.63977	206292
30.64602	208945
30.65228	208868
30.65853	203157
30.66478	209852
30.67103	211172
30.67730	215521
30.68355	216971
30.68980	224624
30.69607	218814
30.70232	231270
30.70857	230716
30.71483	223347
30.72108	221619
30.72733	218413
30.73360	216878
30.73985	206675
30.74610	210005
30.75237	210132
30.75862	204574
30.76487	211193
30.77113	201614
30.77738	210347
30.78363	210704
30.78990	206028
30.79615	202052
30.80240	207989
30.80867	204823
30.81492	201353
30.82117	201749
30.82743	202493
30.83368	202640
30.83993	200362
30.84620	200733
30.85245	198490
30.85870	197649
30.86497	201364
30.87122	205578
30.87747	198294
30.88373	205747
30.88998	199149
30.89623	197188
30.90248	200551
30.90875	208294
30.91500	201498
30.92125	201946
30.92752	205022
30.93377	203756
30.94002	208999
30.94628	203910
30.95253	205934
30.95878	203427
30.96505	207503
30.97130	210026
30.97755	217218
30.98382	221970
30.99007	243806
30.99632	249812
31.00258	272727
31.00883	281665
31.01508	275270
31.02135	282676
31.02760	268937
31.03385	254852
31.04012	248850
31.04637	239186
31.05262	227807
31.05888	216064
31.06513	213233
31.07138	207179
31.07765	206903
31.08390	206592
31.09015	210581
31.09642	211439
31.10267	210211
31.10892	207856
31.11517	207548
31.12143	202123
31.12768	200357
31.13393	207383
31.14020	203189
31.14645	199297
31.15270	204035
31.15897	206835
31.16522	199583
31.17147	198458
31.17773	207245
31.18398	199789
31.19023	206450
31.19650	199243
31.20275	200670
31.20900	203771
31.21527	205853
31.22152	197490
31.22777	200536
31.23403	195390
31.24028	199197
31.24653	197843
31.25280	198081
31.25905	204681
31.26530	193597
31.27157	197965
31.27782	198165
31.28407	194629
31.29033	199258
31.29658	192468
31.30283	198610
31.30910	199744
31.31535	201010
31.32160	196340
31.32787	202168
31.33412	198619
31.34037	200277
31.34662	204839
31.35288	203394
31.35913	202383
31.36538	203334
31.37165	198893
31.37790	200368
31.38415	199760
31.39042	204517
31.39667	198646
31.40292	207238
31.40918	204958
31.41543	197280
31.42168	196992
31.42795	200816
31.43420	200758
31.44045	201903
31.44672	203858
31.45297	197123
31.45922	195635
31.46548	207827
31.47173	198733
31.47798	194832
31.48425	201629
31.49050	196944
31.49675	195154
31.50302	197565
31.50927	199346
31.51552	198568
31.52178	193870
31.52803	192633
31.53428	193087
31.54055	195556
31.54680	196150
31.55305	191577
31.55930	196687
31.56557	190413
31.57182	191391
31.57807	193920
31.58433	195727
31.59058	196176
31.59683	196671
31.60310	190767
31.60935	197856
31.61560	198084
31.62187	193155
31.62812	195490
31.63437	194897
31.64063	191010
31.64688	191688
31.65313	196490
31.65940	198291
31.66565	189953
31.67190	195091
31.67817	187960
31.68442	190834
31.69067	193581
31.69693	187674
31.70318	195382
31.70943	190685
31.71570	199022
31.72195	190218
31.72820	187629
31.73447	188969
31.74072	191694
31.74697	195269
31.75323	193663
31.75948	187998
31.76573	186755
31.77200	190550
31.77825	194596
31.78450	186592
31.79075	184925
31.79702	192928
31.80327	191634
31.80952	195963
31.81578	184936
31.82203	192356
31.82828	188386
31.83455	190712
31.84080	186145
31.84705	192062
31.85332	185377
31.85957	191434
31.86582	191641
31.87208	190098
31.87833	186498
31.88458	188905
31.89085	189120
31.89710	192530
31.90335	187709
31.90962	183530
31.91587	192981
31.92212	185539
31.92838	186268
31.93463	187317
31.94088	191359
31.94715	188723
31.95340	184121
31.95965	197666
31.96592	220523
31.97217	212930
31.97842	212124
31.98468	221020
31.99093	195408
31.99718	223768
32.00343	197798
32.00970	183373
32.01595	182258
32.02220	190178
32.02847	184769
32.03472	190389
32.04097	191887
32.04723	182688
32.05348	185772
32.05973	183059
32.06600	181506
32.07225	184220
32.07850	180995
32.08477	180117
32.09102	179319
32.09727	184262
32.10353	182216
32.10978	189202
32.11603	181541
32.12230	189407
32.12855	182612
32.13480	179718
32.14107	183520
32.14732	189040
32.15357	189188
32.15983	187340
32.16608	179738
32.17233	182341
32.17860	182580
32.18485	182359
32.19110	186623
32.19737	187855
32.20362	183615
32.20987	180220
32.21613	183572
32.22238	183451
32.22863	180062
32.23488	180261
32.24115	179445
32.24740	186267
32.25365	187101
32.25992	188371
32.26617	186922
32.27242	186791
32.27868	180915
32.28493	184893
32.29118	188116
32.29745	180940
32.30370	182118
32.30995	180637
32.31622	185208
32.32247	184603
32.32872	179767
32.33498	183985
32.34123	183036
32.34748	177024
32.35375	183857
32.36000	177897
32.36625	179299
32.37252	186487
32.37877	179978
32.38502	180812
32.39128	184874
32.39753	180227
32.40378	180387
32.41005	180384
32.41630	186327
32.42255	179955
32.42882	178942
32.43507	175318
32.44132	182103
32.44757	179181
32.45383	182762
32.46008	177981
32.46633	180524
32.47260	179123
32.47885	185274
32.48510	178698
32.49137	175547
32.49762	180321
32.50387	175057
32.51013	181042
32.51638	182849
32.52263	185689
32.52890	183832
32.53515	177613
32.54140	183466
32.54767	174739
32.55392	177249
32.56017	184463
32.56643	186776
32.57268	184120
32.57893	177880
32.58520	177538
32.59145	184180
32.59770	178272
32.60397	177528
32.61022	183156
32.61647	176076
32.62273	176227
32.62898	188479
32.63523	181129
32.64150	176084
32.64775	180413
32.65400	176552
32.66025	175268
32.66652	175032
32.67277	176081
32.67902	177926
32.68528	182545
32.69153	184934
32.69778	182318
32.70405	175685
32.71030	180775
32.71655	182733
32.72282	176570
32.72907	181211
32.73532	178389
32.74158	177376
32.74783	174995
32.75408	172644
32.76035	174624
32.76660	176626
32.77285	178408
32.77912	172618
32.78537	177143
32.79162	174708
32.79788	168055
32.80413	180962
32.81038	180124
32.81665	175614
32.82290	175851
32.82915	175024
32.83542	175239
32.84167	176020
32.84792	173379
32.85418	173779
32.86043	171790
32.86668	174980
32.87295	170241
32.87920	177400
32.88545	171872
32.89170	177190
32.89797	168245
32.90422	181683
32.91047	173656
32.91673	177926
32.92298	172853
32.92923	176146
32.93550	173371
32.94175	171802
32.94800	177357
32.95427	175219
32.96052	173876
32.96677	170221
32.97303	171254
32.97928	174077
32.98553	179602
32.99180	171607
32.99805	175550
33.00430	177984
33.01057	171569
33.01682	175552
33.02307	178492
33.02933	169606
33.03558	169557
33.04183	176233
33.04810	176612
33.05435	173202
33.06060	171934
33.06687	174792
33.07312	177941
33.07937	172678
33.08563	167619
33.09188	173095
33.09813	169813
33.10438	176537
33.11065	172530
33.11690	177337
33.12315	178458
33.12942	179013
33.13567	179156
33.14192	177314
33.14818	175562
33.15443	189341
33.16068	181258
33.16695	184884
33.17320	187705
33.17945	191367
33.18572	184690
33.19197	184213
33.19822	187821
33.20448	189915
33.21073	182282
33.21698	179367
33.22325	178033
33.22950	173614
33.23575	177462
33.24202	174426
33.24827	178756
33.25452	170638
33.26078	169991
33.26703	174364
33.27328	173518
33.27955	176232
33.28580	177560
33.29205	171214
33.29832	172332
33.30457	167910
33.31082	170405
33.31707	171986
33.32333	169784
33.32958	175254
33.33583	174279
33.34210	179118
33.34835	179655
33.35460	181517
33.36087	187258
33.36712	188305
33.37337	184472
33.37963	190065
33.38588	194097
33.39213	189988
33.39840	183245
33.40465	183934
33.41090	184296
33.41717	177368
33.42342	177011
33.42967	179699
33.43593	172779
33.44218	172908
33.44843	174035
33.45470	174383
33.46095	173678
33.46720	168538
33.47347	165374
33.47972	171310
33.48597	172214
33.49223	173520
33.49848	167954
33.50473	170098
33.51100	178761
33.51725	165153
33.52350	170094
33.52977	173853
33.53602	167644
33.54227	173746
33.54852	175358
33.55478	173644
33.56103	172921
33.56728	171777
33.57355	168191
33.57980	173259
33.58605	166440
33.59232	167576
33.59857	171271
33.60482	172227
33.61108	172469
33.61733	171010
33.62358	170997
33.62985	165333
33.63610	165493
33.64235	165279
33.64862	171020
33.65487	165913
33.66112	168313
33.66738	166685
33.67363	166298
33.67988	166346
33.68615	172447
33.69240	161180
33.69865	171763
33.70492	163438
33.71117	168854
33.71742	165636
33.72368	167716
33.72993	167131
33.73618	164994
33.74245	170243
33.74870	167947
33.75495	171110
33.76120	164710
33.76747	170538
33.77372	163282
33.77997	164568
33.78623	162170
33.79248	161279
33.79873	164070
33.80500	165904
33.81125	164188
33.81750	162205
33.82377	169303
33.83002	163651
33.83627	165512
33.84253	167180
33.84878	163674
33.85503	184159
33.86130	171761
33.86755	169868
33.87380	161868
33.88007	170395
33.88632	169335
33.89257	167862
33.89883	166969
33.90508	164097
33.91133	167158
33.91760	164734
33.92385	165675
33.93010	161617
33.93637	162965
33.94262	170347
33.94887	162064
33.95513	160178
33.96138	161918
33.96763	169303
33.97390	161040
33.98015	165787
33.98640	158964
33.99265	165844
33.99892	168293
34.00517	168214
34.01142	163869
34.01768	164921
34.02393	168870
34.03018	159476
34.03645	163027
34.04270	161293
34.04895	164476
34.05522	159084
34.06147	158981
34.06772	163956
34.07398	164146
34.08023	163310
34.08648	165097
34.09275	164269
34.09900	157751
34.10525	160459
34.11152	165324
34.11777	160209
34.12402	166639
34.13028	163946
34.13653	163782
34.14278	160163
34.14905	164648
34.15530	161472
34.16155	161149
34.16782	159091
34.17407	161958
34.18032	165308
34.18658	165298
34.19283	165630
34.19908	162155
34.20533	163984
34.21160	159401
34.21785	161089
34.22410	163413
34.23037	165339
34.23662	158869
34.24287	163312
34.24913	161168
34.25538	166569
34.26163	163987
34.26790	162869
34.27415	159002
34.28040	158927
34.28667	161153
34.29292	157479
34.29917	160571
34.30543	159478
34.31168	166004
34.31793	158976
34.32420	161481
34.33045	166990
34.33670	161962
34.34297	160387
34.34922	160315
34.35547	158266
34.36173	164283
34.36798	161848
34.37423	164766
34.38050	156878
34.38675	154262
34.39300	161386
34.39927	164080
34.40552	158149
34.41177	165889
34.41803	164025
34.42428	159611
34.43053	157954
34.43678	157822
34.44305	167811
34.44930	191899
34.45555	196360
34.46182	195618
34.46807	199767
34.47432	195152
34.48058	195028
34.48683	191464
34.49308	188260
34.49935	191971
34.50560	196662
34.51185	197890
34.51812	198416
34.52437	194292
34.53062	192626
34.53688	194626
34.54313	194111
34.54938	195418
34.55565	191251
34.56190	195629
34.56815	200854
34.57442	195653
34.58067	194950
34.58692	189804
34.59318	192247
34.59943	193757
34.60568	195296
34.61195	198510
34.61820	202551
34.62445	202301
34.63072	196368
34.63697	198138
34.64322	199153
34.64947	197033
34.65573	200124
34.66198	200727
34.66823	193056
34.67450	183674
34.68075	193010
34.68700	190522
34.69327	203012
34.69952	196240
34.70577	197544
34.71203	199319
34.71828	196624
34.72453	197499
34.73080	205719
34.73705	204247
34.74330	192786
34.74957	199823
34.75582	196513
34.76207	198729
34.76833	198354
34.77458	196245
34.78083	195924
34.78710	205823
34.79335	193196
34.79960	198423
34.80587	195654
34.81212	198520
34.81837	196881
34.82463	195060
34.83088	195709
34.83713	198709
34.84340	205497
34.84965	197897
34.85590	197934
34.86217	196654
34.86842	196450
34.87467	193982
34.88092	197310
34.88718	195651
34.89343	199204
34.89968	194067
34.90595	194610
34.91220	194895
34.91845	195723
34.92472	196525
34.93097	200085
34.93722	196607
34.94348	195490
34.94973	194332
34.95598	200316
34.96225	191809
34.96850	195145
34.97475	193793
34.98102	191076
34.98727	196320
34.99352	195388
34.99978	199128
35.00603	198543
35.01228	197287
35.01855	193708
35.02480	200534
35.03105	196133
35.03732	198881
35.04357	195471
35.04982	198088
35.05608	191126
35.06233	191409
35.06858	191226
35.07485	195694
35.08110	196546
35.08735	194785
35.09360	198208
35.09987	200655
35.10612	199549
35.11237	195572
35.11863	198499
35.12488	197825
35.13113	190649
35.13740	196609
35.14365	193861
35.14990	190284
35.15617	189971
35.16242	198152
35.16867	190343
35.17493	196384
35.18118	191113
35.18743	198501
35.19370	196442
35.19995	190164
35.20620	191026
35.21247	187311
35.21872	197886
35.22497	197700
35.23123	189208
35.23748	194008
35.24373	190091
35.25000	195610
35.25625	196858
35.26250	189814
35.26877	188077
35.27502	195706
35.28127	191583
35.28753	193268
35.29378	195696
35.30003	194261
35.30628	191210
35.31255	191179
35.31880	190150
35.32505	194401
35.33132	195221
35.33757	189579
35.34382	191359
35.35008	191069
35.35633	188347
35.36258	189785
35.36885	187246
35.37510	186464
35.38135	193430
35.38762	188109
35.39387	183892
35.40012	187607
35.40638	190623
35.41263	192115
35.41888	188740
35.42515	189452
35.43140	185472
35.43765	189606
35.44392	194908
35.45017	186454
35.45642	193139
35.46268	193434
35.46893	194895
35.47518	186670
35.48145	188307
35.48770	195191
35.49395	186305
35.50022	186139
35.50647	196389
35.51272	193929
35.51898	186847
35.52523	188274
35.53148	194668
35.53773	189253
35.54400	189738
35.55025	185223
35.55650	189764
35.56277	191826
35.56902	196086
35.57527	192067
35.58153	192666
35.58778	189780
35.59403	190878
35.60030	194013
35.60655	191206
35.61280	192745
35.61907	188729
35.62532	189066
35.63157	188513
35.63783	193137
35.64408	193943
35.65033	192909
35.65660	185329
35.66285	192965
35.66910	183876
35.67537	190060
35.68162	186563
35.68787	190605
35.69413	191241
35.70038	184478
35.70663	186197
35.71290	186640
35.71915	188172
35.72540	184547
35.73167	187334
35.73792	188949
35.74417	189936
35.75042	194219
35.75668	190222
35.76293	190633
35.76918	181103
35.77545	190197
35.78170	181652
35.78795	187897
35.79422	185668
35.80047	187940
35.80672	192450
35.81298	184243
35.81923	185278
35.82548	191531
35.83175	191771
35.83800	191457
35.84425	186094
35.85052	184414
35.85677	186079
35.86302	183001
35.86928	186212
35.87553	179866
35.88178	187205
35.88805	178446
35.89430	190561
35.90055	194424
35.90682	187555
35.91307	182791
35.91932	193498
35.92558	189249
35.93183	182679
35.93808	185356
35.94435	183017
35.95060	182806
35.95685	181728
35.96310	186090
35.96937	184991
35.97562	181911
35.98187	186035
35.98813	183695
35.99438	181957
36.00063	190265
36.00690	182768
36.01315	182078
36.01940	189397
36.02567	186808
36.03192	180771
36.03817	187239
36.04443	182847
36.05068	179522
36.05693	183413
36.06320	189830
36.06945	181881
36.07570	184630
36.08197	180423
36.08822	181273
36.09447	186462
36.10073	186824
36.10698	181412
36.11323	188207
36.11950	189645
36.12575	182397
36.13200	187901
36.13827	186972
36.14452	179385
36.15077	181485
36.15703	180978
36.16328	182076
36.16953	183086
36.17580	182806
36.18205	184817
36.18830	176226
36.19455	186474
36.20082	180672
36.20707	183510
36.21332	185936
36.21958	182171
36.22583	192442
36.23208	184305
36.23835	191262
36.24460	197276
36.25085	199745
36.25712	208429
36.26337	216514
36.26962	228386
36.27588	233671
36.28213	250519
36.28838	260573
36.29465	267182
36.30090	281253
36.30715	291807
36.31342	297349
36.31967	309597
36.32592	314040
36.33218	310964
36.33843	310453
36.34468	297030
36.35095	298723
36.35720	275118
36.36345	267315
36.36972	259511
36.37597	242960
36.38222	236504
36.38848	230362
36.39473	221295
36.40098	213803
36.40723	209686
36.41350	211921
36.41975	201294
36.42600	202768
36.43227	199877
36.43852	196383
36.44477	194171
36.45103	197449
36.45728	187818
36.46353	188164
36.46980	194005
36.47605	185743
36.48230	188067
36.48857	192424
36.49482	185941
36.50107	192297
36.50733	182235
36.51358	188725
36.51983	185370
36.52610	184168
36.53235	187304
36.53860	189601
36.54487	181083
36.55112	190301
36.55737	189288
36.56363	191255
36.56988	191424
36.57613	186995
36.58240	189101
36.58865	188998
36.59490	185719
36.60117	186913
36.60742	186460
36.61367	189889
36.61993	186743
36.62618	184132
36.63243	183010
36.63868	185411
36.64495	184496
36.65120	183562
36.65745	189112
36.66372	178759
36.66997	178580
36.67622	183296
36.68248	182494
36.68873	182836
36.69498	183446
36.70125	184721
36.70750	187609
36.71375	183125
36.72002	181693
36.72627	183104
36.73252	183844
36.73878	182448
36.74503	178517
36.75128	177431
36.75755	186263
36.76380	176882
36.77005	184495
36.77632	177918
36.78257	181391
36.78882	178054
36.79508	181920
36.80133	176843
36.80758	176993
36.81385	184198
36.82010	182108
36.82635	174565
36.83262	177679
36.83887	178398
36.84512	179116
36.85137	188126
36.85763	180438
36.86388	185152
36.87013	178001
36.87640	179206
36.88265	177662
36.88890	175771
36.89517	174847
36.90142	178336
36.90767	177753
36.91393	180482
36.92018	177956
36.92643	177158
36.93270	178918
36.93895	181484
36.94520	172883
36.95147	181604
36.95772	174654
36.96397	182686
36.97023	173617
36.97648	175871
36.98273	174468
36.98900	178317
36.99525	177361
37.00150	176506
37.00777	173210
37.01402	172425
37.02027	174623
37.02653	175508
37.03278	178865
37.03903	181802
37.04530	176632
37.05155	176749
37.05780	174100
37.06407	171341
37.07032	176919
37.07657	174327
37.08282	176703
37.08908	173939
37.09533	180918
37.10158	173681
37.10785	173741
37.11410	177702
37.12035	170824
37.12662	174077
37.13287	181002
37.13912	178342
37.14538	174921
37.15163	170265
37.15788	170783
37.16415	177513
37.17040	172637
37.17665	178161
37.18292	171874
37.18917	175095
37.19542	173834
37.20168	176528
37.20793	172424
37.21418	176932
37.22045	175507
37.22670	173270
37.23295	174528
37.23922	170663
37.24547	173384
37.25172	176823
37.25798	178226
37.26423	173988
37.27048	170645
37.27675	172801
37.28300	173771
37.28925	171576
37.29550	177143
37.30177	179150
37.30802	170363
37.31427	177555
37.32053	174213
37.32678	175174
37.33303	171399
37.33930	172221
37.34555	169978
37.35180	171122
37.35807	171304
37.36432	173162
37.37057	173579
37.37683	171094
37.38308	168551
37.38933	167924
37.39560	171346
37.40185	174713
37.40810	171073
37.41437	170953
37.42062	170338
37.42687	171551
37.43313	169021
37.43938	168854
37.44563	171696
37.45190	173410
37.45815	173017
37.46440	172415
37.47067	166165
37.47692	170562
37.48317	168236
37.48943	169382
