D:\MassHunter\GCMS\1\data\metastasis_lineages_3replicates_3runs_10302020\B_plate2_run2_10302020.D Sat Oct 31 03:45:30 2020
Start of data points
5.99355	166623
5.99982	176457
6.00607	181046
6.01232	178333
6.01858	169737
6.02483	171034
6.03108	177753
6.03735	184819
6.04360	191877
6.04985	191465
6.05612	183312
6.06237	195723
6.06862	202016
6.07488	179812
6.08113	171984
6.08738	174187
6.09365	268165
6.09990	550812
6.10615	942571
6.11242	1017915
6.11867	699178
6.12492	363287
6.13117	224354
6.13743	189838
6.14368	217976
6.14993	302222
6.15620	485548
6.16245	761669
6.16870	973414
6.17497	874518
6.18122	558223
6.18747	305550
6.19373	212926
6.19998	179626
6.20623	169085
6.21250	167138
6.21875	152084
6.22500	160280
6.23127	168838
6.23752	172128
6.24377	167690
6.25003	164228
6.25628	159305
6.26253	161280
6.26880	169133
6.27505	170715
6.28130	182356
6.28757	170248
6.29382	188339
6.30007	258502
6.30633	450671
6.31258	892096
6.31883	2218313
6.32510	5801963
6.33135	1.147866E+07
6.33760	1.491177E+07
6.34385	1.182406E+07
6.35012	4620650
6.35637	1070592
6.36262	308931
6.36888	224290
6.37513	226130
6.38138	216999
6.38765	214991
6.39390	248692
6.40015	367660
6.40642	568107
6.41267	646824
6.41892	593826
6.42518	668111
6.43143	881464
6.43768	973156
6.44395	799256
6.45020	969316
6.45645	2293517
6.46272	5827261
6.46897	1.202076E+07
6.47522	2.01995E+07
6.48148	2.912647E+07
6.48773	3.736478E+07
6.49398	4.307608E+07
6.50025	4.630096E+07
6.50650	4.673268E+07
6.51275	4.638721E+07
6.51902	4.560628E+07
6.52527	2.678856E+07
6.53152	2327454
6.53778	770067
6.54403	751659
6.55028	853611
6.55655	1127357
6.56280	1692086
6.56905	2417562
6.57530	2617403
6.58157	1804439
6.58782	855742
6.59407	436666
6.60033	332402
6.60658	307547
6.61283	282530
6.61910	281624
6.62535	273959
6.63160	285933
6.63787	297058
6.64412	304378
6.65037	297317
6.65663	312224
6.66288	378493
6.66913	470869
6.67540	456579
6.68165	369051
6.68790	310603
6.69417	282776
6.70042	277404
6.70667	290944
6.71293	299073
6.71918	316349
6.72543	338536
6.73170	349234
6.73795	350109
6.74420	364366
6.75047	369219
6.75672	367543
6.76297	362343
6.76923	362832
6.77548	373534
6.78173	372233
6.78798	399009
6.79425	425207
6.80050	472140
6.80675	498407
6.81302	499535
6.81927	483904
6.82552	467297
6.83178	476130
6.83803	508898
6.84428	569618
6.85055	573366
6.85680	536611
6.86305	501482
6.86932	524371
6.87557	635824
6.88182	794915
6.88808	826406
6.89433	709664
6.90058	573632
6.90685	500541
6.91310	466789
6.91935	444288
6.92562	431726
6.93187	423421
6.93812	421884
6.94438	421644
6.95063	410030
6.95688	391071
6.96315	364018
6.96940	361523
6.97565	367839
6.98192	361234
6.98817	350740
6.99442	325334
7.00067	316962
7.00693	310011
7.01318	320920
7.01943	406059
7.02570	752399
7.03195	1888402
7.03820	4422081
7.04447	7368076
7.05072	8026017
7.05697	5538599
7.06323	2366250
7.06948	772196
7.07573	310033
7.08200	222089
7.08825	201903
7.09450	186946
7.10077	179664
7.10702	167210
7.11327	165691
7.11953	158649
7.12578	152838
7.13203	172519
7.13830	230203
7.14455	325995
7.15080	382974
7.15707	338641
7.16332	230228
7.16957	166187
7.17583	155597
7.18208	140051
7.18833	131088
7.19460	145594
7.20085	152447
7.20710	160350
7.21337	146909
7.21962	136840
7.22587	140228
7.23212	149683
7.23838	167711
7.24463	227013
7.25088	347416
7.25715	580201
7.26340	792069
7.26965	772686
7.27592	546684
7.28217	341454
7.28842	211218
7.29468	185898
7.30093	166636
7.30718	168271
7.31345	150936
7.31970	134220
7.32595	128590
7.33222	126083
7.33847	122941
7.34472	127368
7.35098	116601
7.35723	114846
7.36348	115305
7.36975	114558
7.37600	120881
7.38225	140870
7.38852	153801
7.39477	157506
7.40102	156204
7.40728	162098
7.41353	213890
7.41978	294298
7.42605	367542
7.43230	374310
7.43855	310721
7.44480	234532
7.45107	180118
7.45732	164324
7.46357	166487
7.46983	176075
7.47608	189505
7.48233	186402
7.48860	194926
7.49485	216629
7.50110	255854
7.50737	268129
7.51362	225939
7.51987	176221
7.52613	142500
7.53238	124932
7.53863	132544
7.54490	220246
7.55115	734557
7.55740	2847303
7.56367	8184650
7.56992	1.637874E+07
7.57617	2.523265E+07
7.58243	2.989373E+07
7.58868	2.591802E+07
7.59493	1.273579E+07
7.60120	3683557
7.60745	1423056
7.61370	1031563
7.61997	842868
7.62622	717214
7.63247	575737
7.63873	404135
7.64498	291777
7.65123	231857
7.65750	204317
7.66375	219412
7.67000	265410
7.67625	347771
7.68252	400640
7.68877	362171
7.69502	262258
7.70128	204359
7.70753	212232
7.71378	291511
7.72005	380437
7.72630	387395
7.73255	340246
7.73882	272221
7.74507	227584
7.75132	183906
7.75758	164818
7.76383	149026
7.77008	138771
7.77635	146565
7.78260	157803
7.78885	155627
7.79512	154161
7.80137	153852
7.80762	150653
7.81388	163829
7.82013	217054
7.82638	302899
7.83265	355198
7.83890	330542
7.84515	251159
7.85142	220784
7.85767	225789
7.86392	250257
7.87018	256462
7.87643	231608
7.88268	204434
7.88893	182663
7.89520	182010
7.90145	189097
7.90770	200462
7.91397	213519
7.92022	214043
7.92647	209523
7.93273	199605
7.93898	200913
7.94523	237665
7.95150	310977
7.95775	361685
7.96400	342538
7.97027	309662
7.97652	305580
7.98277	349131
7.98903	519256
7.99528	790996
8.00153	1040887
8.00780	1320341
8.01405	1914884
8.02030	2522423
8.02657	2508065
8.03282	1845548
8.03907	1140465
8.04533	879686
8.05158	932190
8.05783	994600
8.06410	837888
8.07035	550427
8.07660	361471
8.08287	355239
8.08912	461031
8.09537	567724
8.10163	607638
8.10788	690605
8.11413	878544
8.12038	1003853
8.12665	828933
8.13290	509235
8.13915	301087
8.14542	206409
8.15167	186425
8.15792	169477
8.16418	159610
8.17043	154925
8.17668	147784
8.18295	146991
8.18920	140419
8.19545	135743
8.20172	132225
8.20797	130369
8.21422	135776
8.22048	161913
8.22673	233064
8.23298	337096
8.23925	391831
8.24550	351729
8.25175	253116
8.25802	206097
8.26427	184418
8.27052	178518
8.27678	185027
8.28303	210189
8.28928	227384
8.29555	227972
8.30180	184105
8.30805	146139
8.31432	118948
8.32057	109354
8.32682	121025
8.33307	117887
8.33933	122829
8.34558	124754
8.35183	126019
8.35810	122435
8.36435	125880
8.37060	132776
8.37687	115061
8.38312	101313
8.38937	113814
8.39563	144459
8.40188	230967
8.40813	360417
8.41440	404250
8.42065	316349
8.42690	208231
8.43317	139729
8.43942	129823
8.44567	139107
8.45193	146401
8.45818	150958
8.46443	133393
8.47070	118724
8.47695	108627
8.48320	113119
8.48947	107466
8.49572	119959
8.50197	125727
8.50823	135634
8.51448	126764
8.52073	113346
8.52700	98619
8.53325	86774
8.53950	85223
8.54577	84084
8.55202	95931
8.55827	143391
8.56452	246382
8.57078	403013
8.57703	593839
8.58328	894642
8.58955	1242524
8.59580	1391490
8.60205	1294489
8.60832	1718101
8.61457	3988928
8.62082	8908583
8.62708	1.387433E+07
8.63333	1.568805E+07
8.63958	1.112898E+07
8.64585	4438153
8.65210	1080911
8.65835	304784
8.66462	195345
8.67087	176653
8.67712	168789
8.68338	164462
8.68963	169541
8.69588	178096
8.70215	177720
8.70840	180050
8.71465	186083
8.72092	175119
8.72717	154189
8.73342	141326
8.73968	140725
8.74593	151309
8.75218	155737
8.75845	134958
8.76470	109148
8.77095	89152
8.77720	90142
8.78347	90957
8.78972	86928
8.79597	81916
8.80223	79123
8.80848	76323
8.81473	80170
8.82100	84474
8.82725	125889
8.83350	312054
8.83977	934294
8.84602	2479952
8.85227	4938318
8.85853	7225418
8.86478	7885277
8.87103	6558878
8.87730	5124746
8.88355	4720101
8.88980	4842964
8.89607	3803996
8.90232	1576170
8.90857	519934
8.91483	244050
8.92108	156237
8.92733	140575
8.93360	128168
8.93985	116649
8.94610	123408
8.95237	137114
8.95862	175914
8.96487	218770
8.97113	248885
8.97738	250409
8.98363	265766
8.98988	319725
8.99615	426556
9.00240	594725
9.00865	726726
9.01492	712543
9.02117	558255
9.02742	417529
9.03368	536358
9.03993	1080403
9.04618	1597360
9.05245	1679730
9.05870	1111459
9.06495	537159
9.07122	287598
9.07747	206921
9.08372	188089
9.08998	200904
9.09623	211578
9.10248	214093
9.10875	197711
9.11500	169460
9.12125	152550
9.12752	161697
9.13377	198030
9.14002	232405
9.14628	246082
9.15253	243119
9.15878	276580
9.16505	337453
9.17130	349606
9.17755	336097
9.18382	359740
9.19007	452211
9.19632	500020
9.20258	418506
9.20883	287121
9.21508	197824
9.22133	148397
9.22760	142208
9.23385	163812
9.24010	215301
9.24637	267837
9.25262	295316
9.25887	253769
9.26513	188881
9.27138	143437
9.27763	127270
9.28390	132799
9.29015	165936
9.29640	227317
9.30267	313884
9.30892	402520
9.31517	478161
9.32143	548640
9.32768	581717
9.33393	559219
9.34020	657266
9.34645	945513
9.35270	1185886
9.35897	1089561
9.36522	706758
9.37147	488497
9.37773	993473
9.38398	3324912
9.39023	8523754
9.39650	1.484187E+07
9.40275	1.856767E+07
9.40900	1.5339E+07
9.41527	7909147
9.42152	2363365
9.42777	969174
9.43402	1950086
9.44028	6101292
9.44653	1.477572E+07
9.45278	2.478643E+07
9.45905	2.961641E+07
9.46530	2.685298E+07
9.47155	1.493052E+07
9.47782	4925201
9.48407	1339731
9.49032	492616
9.49658	288051
9.50283	216078
9.50908	203510
9.51535	192963
9.52160	203325
9.52785	193363
9.53412	188144
9.54037	182167
9.54662	183573
9.55288	178304
9.55913	183684
9.56538	187150
9.57165	220450
9.57790	232960
9.58415	221300
9.59042	194600
9.59667	186077
9.60292	201545
9.60918	243492
9.61543	272616
9.62168	282850
9.62795	231242
9.63420	179558
9.64045	151156
9.64670	155988
9.65297	161165
9.65922	163162
9.66547	150963
9.67173	193067
9.67798	563073
9.68423	2163645
9.69050	6169265
9.69675	1.265128E+07
9.70300	1.741872E+07
9.70927	1.631273E+07
9.71552	1.004139E+07
9.72177	3999232
9.72803	2285160
9.73428	3194298
9.74053	4061700
9.74680	3549732
9.75305	2130956
9.75930	879994
9.76557	360053
9.77182	233966
9.77807	203591
9.78433	171726
9.79058	145360
9.79683	140605
9.80310	127496
9.80935	120254
9.81560	122082
9.82187	130588
9.82812	130655
9.83437	142301
9.84063	166312
9.84688	234594
9.85313	525994
9.85940	1724142
9.86565	5104216
9.87190	1.063549E+07
9.87815	1.518077E+07
9.88442	1.453074E+07
9.89067	9360640
9.89692	3708249
9.90318	1756545
9.90943	1852577
9.91568	1934762
9.92195	1367451
9.92820	708267
9.93445	318817
9.94072	205711
9.94697	186749
9.95322	225894
9.95948	333413
9.96573	590116
9.97198	923682
9.97825	1173855
9.98450	1193295
9.99075	1040390
9.99702	820108
10.00327	619342
10.00952	436847
10.01578	315532
10.02203	259254
10.02828	218372
10.03455	195566
10.04080	177838
10.04705	169094
10.05332	176267
10.05957	157144
10.06582	141930
10.07208	134772
10.07833	138239
10.08458	144017
10.09083	166769
10.09710	191846
10.10335	202415
10.10960	197046
10.11587	188926
10.12212	168812
10.12837	154758
10.13463	141478
10.14088	134601
10.14713	128745
10.15340	132362
10.15965	126237
10.16590	134608
10.17217	133838
10.17842	155311
10.18467	160925
10.19093	167111
10.19718	155192
10.20343	138002
10.20970	131266
10.21595	182822
10.22220	309468
10.22847	511070
10.23472	697842
10.24097	888930
10.24723	837118
10.25348	624219
10.25973	444460
10.26600	322206
10.27225	265155
10.27850	218315
10.28477	234406
10.29102	295876
10.29727	363132
10.30353	349486
10.30978	275296
10.31603	215160
10.32228	201803
10.32855	226185
10.33480	292058
10.34105	340495
10.34732	321302
10.35357	250242
10.35982	192717
10.36608	172587
10.37233	168326
10.37858	164878
10.38485	143282
10.39110	133859
10.39735	125518
10.40362	115594
10.40987	103259
10.41612	106764
10.42238	117513
10.42863	132134
10.43488	145357
10.44115	144033
10.44740	147163
10.45365	144954
10.45992	156041
10.46617	143442
10.47242	152284
10.47868	220778
10.48493	314225
10.49118	351885
10.49745	355059
10.50370	268517
10.50995	194783
10.51622	144773
10.52247	129502
10.52872	159539
10.53497	205562
10.54123	253657
10.54748	267712
10.55373	227028
10.56000	196152
10.56625	180833
10.57250	177082
10.57877	186956
10.58502	199617
10.59127	206253
10.59753	227193
10.60378	493372
10.61003	1606653
10.61630	4159688
10.62255	8211432
10.62880	1.17528E+07
10.63507	1.182945E+07
10.64132	7318875
10.64757	2868011
10.65383	808476
10.66008	258246
10.66633	156196
10.67260	157129
10.67885	166280
10.68510	162394
10.69137	146755
10.69762	123213
10.70387	110591
10.71013	103029
10.71638	104110
10.72263	115885
10.72890	128175
10.73515	134203
10.74140	144066
10.74767	137306
10.75392	130746
10.76017	128984
10.76642	135483
10.77268	143534
10.77893	150529
10.78518	147925
10.79145	145889
10.79770	135448
10.80395	147365
10.81022	188591
10.81647	289747
10.82272	374751
10.82898	358373
10.83523	258124
10.84148	171388
10.84775	135369
10.85400	134754
10.86025	139966
10.86652	150996
10.87277	145672
10.87902	145705
10.88528	137333
10.89153	137074
10.89778	146938
10.90405	165650
10.91030	174230
10.91655	166634
10.92282	155537
10.92907	153341
10.93532	146609
10.94158	137492
10.94783	120974
10.95408	124819
10.96035	172324
10.96660	457700
10.97285	1584508
10.97910	4428256
10.98537	9755597
10.99162	1.611026E+07
10.99787	2.019481E+07
11.00413	1.769547E+07
11.01038	9539639
11.01663	2895987
11.02290	655682
11.02915	236275
11.03540	204546
11.04167	220155
11.04792	223812
11.05417	250810
11.06043	283493
11.06668	281523
11.07293	251251
11.07920	182689
11.08545	134594
11.09170	126191
11.09797	132320
11.10422	146391
11.11047	151645
11.11673	147993
11.12298	149095
11.12923	159631
11.13550	172898
11.14175	171505
11.14800	176417
11.15427	211922
11.16052	313730
11.16677	457675
11.17303	555087
11.17928	480866
11.18553	325999
11.19180	205768
11.19805	147112
11.20430	141532
11.21055	163391
11.21682	187792
11.22307	207840
11.22932	200525
11.23558	180782
11.24183	165315
11.24808	181274
11.25435	204139
11.26060	211481
11.26685	200633
11.27312	202940
11.27937	212331
11.28562	229334
11.29188	215329
11.29813	179965
11.30438	155099
11.31065	148417
11.31690	186221
11.32315	304937
11.32942	489490
11.33567	572125
11.34192	503079
11.34818	322011
11.35443	181492
11.36068	129091
11.36695	118870
11.37320	121467
11.37945	121910
11.38572	107773
11.39197	108460
11.39822	111893
11.40448	117713
11.41073	120124
11.41698	121456
11.42323	120655
11.42950	126579
11.43575	164180
11.44200	272215
11.44827	452738
11.45452	603249
11.46077	601757
11.46703	436527
11.47328	274586
11.47953	181849
11.48580	162239
11.49205	154836
11.49830	146159
11.50457	132250
11.51082	127966
11.51707	125177
11.52333	116092
11.52958	113788
11.53583	117952
11.54210	118837
11.54835	123176
11.55460	119784
11.56087	113449
11.56712	102453
11.57337	104044
11.57963	102231
11.58588	109377
11.59213	113994
11.59840	119334
11.60465	125296
11.61090	120650
11.61717	114068
11.62342	114966
11.62967	119416
11.63592	118674
11.64218	119494
11.64843	135149
11.65468	153437
11.66095	167644
11.66720	166356
11.67345	152954
11.67972	133449
11.68597	120809
11.69222	121346
11.69848	132409
11.70473	159177
11.71098	209081
11.71725	260377
11.72350	289394
11.72975	272095
11.73602	229712
11.74227	191317
11.74852	164221
11.75478	143401
11.76103	136078
11.76728	145046
11.77355	164095
11.77980	174969
11.78605	181913
11.79232	180596
11.79857	181796
11.80482	183961
11.81108	182667
11.81733	171756
11.82358	178903
11.82985	241493
11.83610	394466
11.84235	556551
11.84862	584768
11.85487	469127
11.86112	317633
11.86737	213252
11.87363	172972
11.87988	184786
11.88613	246456
11.89240	342730
11.89865	425043
11.90490	407355
11.91117	335729
11.91742	262574
11.92367	200947
11.92993	181288
11.93618	209700
11.94243	347671
11.94870	735961
11.95495	1650218
11.96120	3199988
11.96747	5065995
11.97372	5502427
11.97997	3899414
11.98623	1762011
11.99248	672234
11.99873	350106
12.00500	312257
12.01125	305221
12.01750	290628
12.02377	277697
12.03002	297121
12.03627	334771
12.04253	482310
12.04878	697482
12.05503	958311
12.06130	1055324
12.06755	933522
12.07380	666758
12.08005	448397
12.08632	363513
12.09257	355260
12.09882	346909
12.10508	335537
12.11133	289236
12.11758	235332
12.12385	202125
12.13010	184246
12.13635	176825
12.14262	169165
12.14887	165804
12.15512	154159
12.16138	152617
12.16763	149817
12.17388	153626
12.18015	157130
12.18640	179353
12.19265	216605
12.19892	274905
12.20517	346434
12.21142	430752
12.21768	482353
12.22393	478350
12.23018	430439
12.23645	375121
12.24270	358545
12.24895	443526
12.25522	675483
12.26147	1054739
12.26772	1482825
12.27398	1814620
12.28023	1806659
12.28648	1389032
12.29273	822914
12.29900	421836
12.30525	237442
12.31150	168006
12.31777	145648
12.32402	130035
12.33027	131683
12.33653	141774
12.34278	162950
12.34903	196333
12.35530	227062
12.36155	234138
12.36780	230109
12.37407	216415
12.38032	231549
12.38657	282648
12.39283	331135
12.39908	336366
12.40533	283958
12.41160	224608
12.41785	192006
12.42410	188486
12.43037	212735
12.43662	250210
12.44287	268398
12.44913	251444
12.45538	211418
12.46163	190277
12.46790	198088
12.47415	266927
12.48040	458442
12.48667	852561
12.49292	1392287
12.49917	1732129
12.50543	1537258
12.51168	1044808
12.51793	535304
12.52418	270836
12.53045	183579
12.53670	188150
12.54295	221364
12.54922	259192
12.55547	254851
12.56172	222352
12.56798	235996
12.57423	354199
12.58048	661619
12.58675	1262820
12.59300	1893240
12.59925	2110321
12.60552	1876286
12.61177	1696728
12.61802	2072021
12.62428	2972276
12.63053	4152825
12.63678	5479865
12.64305	7675103
12.64930	9704104
12.65555	1.361281E+07
12.66182	1.866229E+07
12.66807	2.401515E+07
12.67432	2.690437E+07
12.68058	2.741827E+07
12.68683	2.304585E+07
12.69308	1.44248E+07
12.69935	3178105
12.70560	743060
12.71185	472219
12.71812	554915
12.72437	640603
12.73062	679908
12.73687	734885
12.74313	802245
12.74938	815174
12.75563	707424
12.76190	555384
12.76815	440192
12.77440	351574
12.78067	311702
12.78692	299224
12.79317	327104
12.79943	330484
12.80568	318370
12.81193	297491
12.81820	290230
12.82445	287957
12.83070	295606
12.83697	302504
12.84322	297028
12.84947	300228
12.85573	303781
12.86198	304791
12.86823	305332
12.87450	313006
12.88075	333428
12.88700	420028
12.89327	617403
12.89952	829154
12.90577	938453
12.91203	852349
12.91828	730798
12.92453	583054
12.93080	434332
12.93705	328539
12.94330	262235
12.94957	227368
12.95582	216281
12.96207	210120
12.96832	200731
12.97458	194898
12.98083	200926
12.98708	210917
12.99335	230969
12.99960	247609
13.00585	271703
13.01212	311152
13.01837	352433
13.02462	427871
13.03088	585653
13.03713	776626
13.04338	874756
13.04965	704534
13.05590	479137
13.06215	392429
13.06842	548837
13.07467	1120994
13.08092	2313918
13.08718	3764893
13.09343	4380902
13.09968	3502404
13.10595	2065244
13.11220	994638
13.11845	577649
13.12472	412747
13.13097	336761
13.13722	316871
13.14348	326818
13.14973	318494
13.15598	295135
13.16225	282870
13.16850	254399
13.17475	237292
13.18100	220193
13.18727	218514
13.19352	208378
13.19977	197965
13.20603	202534
13.21228	209672
13.21853	219561
13.22480	231932
13.23105	264430
13.23730	300434
13.24357	322922
13.24982	312203
13.25607	308151
13.26233	321836
13.26858	336343
13.27483	328130
13.28110	299579
13.28735	302682
13.29360	349577
13.29987	476372
13.30612	668475
13.31237	906208
13.31863	944138
13.32488	705872
13.33113	445876
13.33740	304948
13.34365	272097
13.34990	293301
13.35617	310447
13.36242	302239
13.36867	270591
13.37493	247823
13.38118	240469
13.38743	221187
13.39368	207628
13.39995	201132
13.40620	206875
13.41245	214327
13.41872	231632
13.42497	257855
13.43122	290342
13.43748	344069
13.44373	369731
13.44998	360182
13.45625	326424
13.46250	280374
13.46875	251409
13.47502	240255
13.48127	239071
13.48752	239932
13.49378	250016
13.50003	240273
13.50628	247888
13.51255	251442
13.51880	261910
13.52505	277883
13.53132	290528
13.53757	337713
13.54382	426493
13.55008	654809
13.55633	935774
13.56258	1065699
13.56885	956424
13.57510	703066
13.58135	502045
13.58762	460117
13.59387	585410
13.60012	808432
13.60638	1026373
13.61263	1072372
13.61888	918943
13.62513	697009
13.63140	534999
13.63765	439113
13.64390	372573
13.65017	348369
13.65642	348375
13.66267	337730
13.66893	323658
13.67518	311509
13.68143	330397
13.68770	357361
13.69395	394523
13.70020	398877
13.70647	382544
13.71272	334315
13.71897	305818
13.72523	295152
13.73148	295120
13.73773	301054
13.74400	319116
13.75025	374554
13.75650	569893
13.76277	953855
13.76902	1367974
13.77527	1506379
13.78153	1183012
13.78778	725920
13.79403	515472
13.80030	642496
13.80655	1258387
13.81280	2636897
13.81907	5278424
13.82532	9693026
13.83157	1.542526E+07
13.83782	2.116278E+07
13.84408	2.414041E+07
13.85033	1.887609E+07
13.85658	7942503
13.86285	1973583
13.86910	544011
13.87535	325809
13.88162	360924
13.88787	591580
13.89412	1216924
13.90038	2672474
13.90663	5430472
13.91288	9257477
13.91915	1.200584E+07
13.92540	1.143171E+07
13.93165	7036465
13.93792	2927445
13.94417	874653
13.95042	316074
13.95668	223282
13.96293	219439
13.96918	221904
13.97545	220415
13.98170	218982
13.98795	223554
13.99422	227610
14.00047	243327
14.00672	268058
14.01298	322733
14.01923	336772
14.02548	307097
14.03175	243933
14.03800	201479
14.04425	173490
14.05052	175689
14.05677	184411
14.06302	210797
14.06927	246653
14.07553	282176
14.08178	271025
14.08803	243171
14.09430	206691
14.10055	178263
14.10680	161088
14.11307	162693
14.11932	164177
14.12557	176639
14.13183	184450
14.13808	175812
14.14433	167726
14.15060	161991
14.15685	169521
14.16310	174402
14.16937	172185
14.17562	164753
14.18187	150627
14.18813	144534
14.19438	149962
14.20063	156416
14.20690	165596
14.21315	180817
14.21940	212811
14.22567	266274
14.23192	305712
14.23817	313867
14.24443	279397
14.25068	232339
14.25693	211523
14.26320	248644
14.26945	376692
14.27570	579510
14.28195	758008
14.28822	692133
14.29447	484583
14.30072	332970
14.30698	266223
14.31323	247780
14.31948	261283
14.32575	314762
14.33200	346889
14.33825	335963
14.34452	287569
14.35077	241624
14.35702	214407
14.36328	199456
14.36953	207228
14.37578	211508
14.38205	221886
14.38830	239159
14.39455	291790
14.40082	441867
14.40707	859464
14.41332	1926706
14.41958	3735968
14.42583	5343574
14.43208	5549718
14.43835	4236537
14.44460	2443771
14.45085	1545639
14.45712	1235388
14.46337	1157207
14.46962	1115014
14.47588	1117763
14.48213	1159484
14.48838	1076452
14.49465	836441
14.50090	584036
14.50715	382084
14.51340	293814
14.51967	270757
14.52592	283094
14.53217	302426
14.53843	297387
14.54468	268077
14.55093	261756
14.55720	250594
14.56345	254461
14.56970	263273
14.57597	266988
14.58222	256245
14.58847	242622
14.59473	214055
14.60098	210422
14.60723	222219
14.61350	227700
14.61975	233914
14.62600	235188
14.63227	246524
14.63852	298138
14.64477	404583
14.65103	536308
14.65728	578039
14.66353	501145
14.66980	393815
14.67605	318934
14.68230	301649
14.68857	343566
14.69482	435945
14.70107	593401
14.70733	671610
14.71358	659857
14.71983	641878
14.72608	802162
14.73235	1264979
14.73860	1976319
14.74485	2514337
14.75112	2711196
14.75737	2715750
14.76362	2800797
14.76988	2516588
14.77613	1688211
14.78238	861120
14.78865	439591
14.79490	396542
14.80115	594643
14.80742	1025110
14.81367	1548361
14.81992	1565247
14.82618	1109750
14.83243	586876
14.83868	315096
14.84495	220303
14.85120	214539
14.85745	246535
14.86372	311889
14.86997	361682
14.87622	358761
14.88248	327936
14.88873	291963
14.89498	249633
14.90125	235704
14.90750	281954
14.91375	389692
14.92002	553282
14.92627	696546
14.93252	730067
14.93877	659992
14.94503	527788
14.95128	421104
14.95753	419656
14.96380	566052
14.97005	980023
14.97630	1778775
14.98257	2495179
14.98882	2459207
14.99507	1787527
15.00133	996609
15.00758	526544
15.01383	353740
15.02010	298500
15.02635	275778
15.03260	274323
15.03887	287364
15.04512	314369
15.05137	342368
15.05763	352527
15.06388	367360
15.07013	357592
15.07640	342103
15.08265	340002
15.08890	354100
15.09517	399204
15.10142	465745
15.10767	497961
15.11393	537685
15.12018	609724
15.12643	732835
15.13270	887850
15.13895	1043724
15.14520	1197538
15.15147	1353682
15.15772	1618961
15.16397	2653570
15.17022	4638983
15.17648	7094391
15.18273	7770547
15.18898	6072041
15.19525	3205417
15.20150	1318414
15.20775	571585
15.21402	356021
15.22027	269339
15.22652	225582
15.23278	206877
15.23903	204212
15.24528	220604
15.25155	232495
15.25780	246621
15.26405	253468
15.27032	250069
15.27657	231734
15.28282	216443
15.28908	208975
15.29533	214677
15.30158	220538
15.30785	220823
15.31410	248631
15.32035	291850
15.32662	364362
15.33287	394051
15.33912	349334
15.34538	290778
15.35163	256294
15.35788	282393
15.36415	343553
15.37040	380899
15.37665	356728
15.38290	293402
15.38917	242762
15.39542	209450
15.40167	197020
15.40793	187235
15.41418	189345
15.42043	214786
15.42670	278316
15.43295	366641
15.43920	461337
15.44547	531830
15.45172	613439
15.45797	691906
15.46423	718257
15.47048	616159
15.47673	470156
15.48300	351783
15.48925	270303
15.49550	241817
15.50177	254141
15.50802	308731
15.51427	484275
15.52053	999584
15.52678	2238079
15.53303	4409523
15.53930	6677188
15.54555	8984468
15.55180	1.266048E+07
15.55807	1.669144E+07
15.56432	1.989737E+07
15.57057	1.696622E+07
15.57683	8310380
15.58308	2317239
15.58933	739368
15.59558	463187
15.60185	413737
15.60810	413308
15.61435	424658
15.62062	417511
15.62687	395064
15.63312	381717
15.63938	365222
15.64563	350494
15.65188	303035
15.65815	274863
15.66440	254418
15.67065	251572
15.67692	261274
15.68317	294374
15.68942	298950
15.69568	301550
15.70193	293234
15.70818	280684
15.71445	262200
15.72070	251845
15.72695	236232
15.73322	231100
15.73947	245294
15.74572	257257
15.75198	265212
15.75823	256810
15.76448	233124
15.77075	200423
15.77700	176013
15.78325	162650
15.78952	172486
15.79577	173349
15.80202	185735
15.80828	186832
15.81453	190439
15.82078	193151
15.82703	203016
15.83330	239673
15.83955	317963
15.84580	437887
15.85207	519793
15.85832	492344
15.86457	367144
15.87083	266450
15.87708	228378
15.88333	231879
15.88960	227610
15.89585	228142
15.90210	217573
15.90837	202456
15.91462	179013
15.92087	175658
15.92713	166479
15.93338	169912
15.93963	164548
15.94590	164988
15.95215	173072
15.95840	169305
15.96467	196177
15.97092	222443
15.97717	210780
15.98343	176864
15.98968	149344
15.99593	128816
16.00220	126524
16.00845	160664
16.01470	224450
16.02097	330620
16.02722	440973
16.03347	533306
16.03972	666760
16.04598	873617
16.05223	1231198
16.05848	1439501
16.06475	1207300
16.07100	822130
16.07725	625470
16.08352	717015
16.08977	945290
16.09602	1051710
16.10228	941146
16.10853	875048
16.11478	1081891
16.12105	1701517
16.12730	2561575
16.13355	2981846
16.13982	2354052
16.14607	1374970
16.15232	646263
16.15858	335143
16.16483	254478
16.17108	240530
16.17735	233109
16.18360	232928
16.18985	255552
16.19612	308245
16.20237	365346
16.20862	352924
16.21488	312945
16.22113	373027
16.22738	718194
16.23365	1509989
16.23990	2364993
16.24615	2638205
16.25242	2005968
16.25867	1144045
16.26492	508319
16.27117	277293
16.27743	199945
16.28368	188638
16.28993	216843
16.29620	329894
16.30245	599061
16.30870	995584
16.31497	1277563
16.32122	1121012
16.32747	708354
16.33373	372521
16.33998	230659
16.34623	189510
16.35250	183412
16.35875	180800
16.36500	179940
16.37127	175283
16.37752	165262
16.38377	155925
16.39003	150665
16.39628	142585
16.40253	146311
16.40880	148409
16.41505	151190
16.42130	159674
16.42757	186543
16.43382	268263
16.44007	506495
16.44633	865087
16.45258	1221532
16.45883	1273958
16.46510	1004122
16.47135	727940
16.47760	556758
16.48385	430165
16.49012	346255
16.49637	290635
16.50262	279836
16.50888	304495
16.51513	372504
16.52138	492938
16.52765	603716
16.53390	629979
16.54015	569919
16.54642	501473
16.55267	440041
16.55892	395214
16.56518	352305
16.57143	315465
16.57768	301073
16.58395	288973
16.59020	284079
16.59645	288859
16.60272	294221
16.60897	290799
16.61522	294667
16.62148	295814
16.62773	317410
16.63398	330141
16.64025	352147
16.64650	382773
16.65275	414303
16.65902	407890
16.66527	371773
16.67152	336235
16.67778	317146
16.68403	326637
16.69028	343799
16.69655	338758
16.70280	309223
16.70905	279724
16.71530	249061
16.72157	241183
16.72782	246626
16.73407	247033
16.74033	249554
16.74658	259843
16.75283	270301
16.75910	283110
16.76535	329840
16.77160	444330
16.77787	629912
16.78412	823880
16.79037	1090642
16.79663	1553978
16.80288	2398426
16.80913	3635842
16.81540	4812822
16.82165	5699034
16.82790	6652417
16.83417	8424151
16.84042	1.049753E+07
16.84667	1.228763E+07
16.85293	1.257483E+07
16.85918	1.051601E+07
16.86543	7723285
16.87170	4904330
16.87795	3708070
16.88420	3163178
16.89047	2854866
16.89672	2571868
16.90297	2394602
16.90923	2212264
16.91548	2134763
16.92173	2222403
16.92798	2584249
16.93425	3036919
16.94050	3355001
16.94675	3367154
16.95302	3301852
16.95927	3182503
16.96552	2815062
16.97178	2306603
16.97803	1842071
16.98428	1446280
16.99055	1207502
16.99680	1112548
17.00305	1187122
17.00932	1761008
17.01557	3355273
17.02182	6877849
17.02808	1.248919E+07
17.03433	1.861417E+07
17.04058	2.452029E+07
17.04685	3.071955E+07
17.05310	3.68967E+07
17.05935	4.370122E+07
17.06562	4.808955E+07
17.07187	5.012793E+07
17.07812	4.903491E+07
17.08438	4.716215E+07
17.09063	4.351798E+07
17.09688	4.10013E+07
17.10315	3.867934E+07
17.10940	3.840069E+07
17.11565	3.787117E+07
17.12192	4.520983E+07
17.12817	1.843082E+07
17.13442	1.005898E+07
17.14068	9491830
17.14693	8554628
17.15318	8248002
17.15943	1.101628E+07
17.16570	1.922576E+07
17.17195	3.056509E+07
17.17820	4.049055E+07
17.18447	4.473039E+07
17.19072	4.094138E+07
17.19697	2.315411E+07
17.20323	6335000
17.20948	2726342
17.21573	2924860
17.22200	3624725
17.22825	4736482
17.23450	6510700
17.24077	9848877
17.24702	1.870066E+07
17.25327	3.113536E+07
17.25953	4.177276E+07
17.26578	4.747006E+07
17.27203	4.916588E+07
17.27830	4.407368E+07
17.28455	2.551103E+07
17.29080	9628621
17.29707	9051938
17.30332	1.23603E+07
17.30957	1.490506E+07
17.31583	1.314951E+07
17.32208	7881943
17.32833	3435959
17.33460	1500385
17.34085	999994
17.34710	873655
17.35337	815029
17.35962	778849
17.36587	732107
17.37212	711786
17.37838	699935
17.38463	694553
17.39088	704220
17.39715	752733
17.40340	865211
17.40965	1008068
17.41592	1075901
17.42217	1051803
17.42842	952450
17.43468	890304
17.44093	1051935
17.44718	1507370
17.45345	2417796
17.45970	3424943
17.46595	3666807
17.47222	3023487
17.47847	1873235
17.48472	1011469
17.49098	674820
17.49723	600986
17.50348	630720
17.50975	725967
17.51600	886201
17.52225	1019711
17.52852	1062116
17.53477	875632
17.54102	684080
17.54728	599908
17.55353	641258
17.55978	887420
17.56605	1551609
17.57230	3150939
17.57855	6382275
17.58480	9960036
17.59107	1.091751E+07
17.59732	8726111
17.60357	4756533
17.60983	1929456
17.61608	1016946
17.62233	923446
17.62860	1018706
17.63485	973568
17.64110	801881
17.64737	623586
17.65362	516898
17.65987	467369
17.66613	447224
17.67238	425705
17.67863	430846
17.68490	438335
17.69115	455030
17.69740	480667
17.70367	494693
17.70992	493201
17.71617	465512
17.72243	420352
17.72868	392730
17.73493	383368
17.74120	390765
17.74745	419310
17.75370	444079
17.75997	472848
17.76622	514813
17.77247	603244
17.77873	757608
17.78498	1007262
17.79123	1463796
17.79750	2297098
17.80375	3496926
17.81000	4596295
17.81625	5104069
17.82252	4967661
17.82877	3572932
17.83502	2283266
17.84128	1532914
17.84753	1153324
17.85378	985344
17.86005	1169003
17.86630	2405789
17.87255	5479896
17.87882	9626741
17.88507	1.179367E+07
17.89132	9915084
17.89758	6156856
17.90383	2574328
17.91008	1029513
17.91635	600239
17.92260	493648
17.92885	466888
17.93512	433088
17.94137	426284
17.94762	397048
17.95388	390455
17.96013	403237
17.96638	424323
17.97265	432456
17.97890	437601
17.98515	463125
17.99142	493613
17.99767	565333
18.00392	650479
18.01018	752771
18.01643	807923
18.02268	739265
18.02893	599792
18.03520	489638
18.04145	429106
18.04770	399969
18.05397	378737
18.06022	360127
18.06647	326264
18.07273	313357
18.07898	312134
18.08523	330611
18.09150	370656
18.09775	438040
18.10400	464152
18.11027	466757
18.11652	453345
18.12277	475228
18.12903	716606
18.13528	1361015
18.14153	2521129
18.14780	3713488
18.15405	3848353
18.16030	2790682
18.16657	1457588
18.17282	688653
18.17907	424588
18.18533	344511
18.19158	308449
18.19783	290935
18.20410	291034
18.21035	310521
18.21660	350298
18.22287	390495
18.22912	392315
18.23537	357283
18.24162	320523
18.24788	308055
18.25413	302020
18.26038	311897
18.26665	337794
18.27290	388840
18.27915	445069
18.28542	582941
18.29167	861288
18.29792	1374981
18.30418	1836938
18.31043	2046187
18.31668	1710290
18.32295	1171818
18.32920	711488
18.33545	454432
18.34172	311495
18.34797	267142
18.35422	255816
18.36048	264715
18.36673	270774
18.37298	272870
18.37925	291186
18.38550	324137
18.39175	375506
18.39802	421230
18.40427	413756
18.41052	367913
18.41678	355454
18.42303	326295
18.42928	302918
18.43555	282961
18.44180	267655
18.44805	257742
18.45430	247911
18.46057	239195
18.46682	235756
18.47307	240172
18.47933	233481
18.48558	227666
18.49183	219167
18.49810	212877
18.50435	214816
18.51060	217834
18.51687	222183
18.52312	220373
18.52937	224493
18.53563	231429
18.54188	228598
18.54813	239950
18.55440	243406
18.56065	248447
18.56690	249146
18.57317	243596
18.57942	237368
18.58567	226092
18.59193	221430
18.59818	232816
18.60443	255613
18.61070	306390
18.61695	350133
18.62320	348656
18.62947	317348
18.63572	288592
18.64197	267894
18.64823	261169
18.65448	256271
18.66073	249181
18.66700	241853
18.67325	242558
18.67950	240523
18.68575	232989
18.69202	219482
18.69827	219780
18.70452	254674
18.71078	287031
18.71703	333727
18.72328	334607
18.72955	307028
18.73580	262257
18.74205	233052
18.74832	217110
18.75457	214637
18.76082	219018
18.76708	213191
18.77333	210620
18.77958	204820
18.78585	207254
18.79210	205654
18.79835	203147
18.80462	204991
18.81087	209382
18.81712	215014
18.82338	213622
18.82963	210480
18.83588	208341
18.84215	208497
18.84840	197205
18.85465	198992
18.86092	228904
18.86717	324905
18.87342	617504
18.87968	1588058
18.88593	4045860
18.89218	9053162
18.89843	1.522493E+07
18.90470	1.934542E+07
18.91095	1.737466E+07
18.91720	1.106435E+07
18.92347	4936467
18.92972	1520552
18.93597	543150
18.94223	340058
18.94848	306994
18.95473	289567
18.96100	251069
18.96725	218928
18.97350	202118
18.97977	189031
18.98602	191159
18.99227	191789
18.99853	199971
19.00478	205319
19.01103	224179
19.01730	224313
19.02355	223514
19.02980	213241
19.03607	210666
19.04232	219419
19.04857	241968
19.05483	252003
19.06108	235379
19.06733	217025
19.07360	207808
19.07985	208212
19.08610	219105
19.09237	232302
19.09862	250750
19.10487	260847
19.11113	250893
19.11738	244771
19.12363	238346
19.12988	244296
19.13615	260948
19.14240	264880
19.14865	258383
19.15492	241919
19.16117	221605
19.16742	202947
19.17368	193802
19.17993	188705
19.18618	192346
19.19245	198422
19.19870	201771
19.20495	196800
19.21122	195089
19.21747	189716
19.22372	185051
19.22998	179889
19.23623	174574
19.24248	171538
19.24875	165731
19.25500	171229
19.26125	168765
19.26752	159075
19.27377	160402
19.28002	162368
19.28628	171309
19.29253	176089
19.29878	178336
19.30505	171733
19.31130	170544
19.31755	161388
19.32382	152185
19.33007	152386
19.33632	164723
19.34257	180667
19.34883	202613
19.35508	216633
19.36133	229453
19.36760	221743
19.37385	209632
19.38010	205494
19.38637	199356
19.39262	208746
19.39887	227810
19.40513	246113
19.41138	250127
19.41763	233461
19.42390	213091
19.43015	192563
19.43640	185704
19.44267	184168
19.44892	191946
19.45517	192514
19.46143	181676
19.46768	177871
19.47393	174413
19.48020	174079
19.48645	173243
19.49270	179086
19.49897	192827
19.50522	202898
19.51147	208970
19.51773	216459
19.52398	225238
19.53023	221808
19.53650	212224
19.54275	211751
19.54900	229634
19.55527	262490
19.56152	277641
19.56777	267149
19.57402	232811
19.58028	198719
19.58653	183120
19.59278	170634
19.59905	172447
19.60530	169475
19.61155	168732
19.61782	164640
19.62407	166103
19.63032	175084
19.63658	192784
19.64283	206801
19.64908	210270
19.65535	202485
19.66160	203792
19.66785	215655
19.67412	257910
19.68037	311096
19.68662	332986
19.69288	315487
19.69913	279987
19.70538	264698
19.71165	262924
19.71790	270810
19.72415	256634
19.73042	238602
19.73667	229327
19.74292	222645
19.74918	216370
19.75543	222041
19.76168	203279
19.76795	213659
19.77420	223713
19.78045	228856
19.78670	224171
19.79297	216101
19.79922	227492
19.80547	246894
19.81173	244523
19.81798	223403
19.82423	193228
19.83050	171995
19.83675	166452
19.84300	157631
19.84927	169306
19.85552	183816
19.86177	205151
19.86803	231691
19.87428	236025
19.88053	230730
19.88680	209140
19.89305	194174
19.89930	218140
19.90557	333896
19.91182	775534
19.91807	2021023
19.92433	3832569
19.93058	5232128
19.93683	5009395
19.94310	3315682
19.94935	1555593
19.95560	599121
19.96187	322137
19.96812	309749
19.97437	358659
19.98063	454932
19.98688	504164
19.99313	483392
19.99940	399027
20.00565	310182
20.01190	252887
20.01815	218293
20.02442	207109
20.03067	201763
20.03692	194783
20.04318	198385
20.04943	209375
20.05568	230614
20.06195	234774
20.06820	214162
20.07445	193350
20.08072	178123
20.08697	178246
20.09322	186848
20.09948	199259
20.10573	202497
20.11198	195408
20.11825	176873
20.12450	168916
20.13075	166243
20.13702	163598
20.14327	171284
20.14952	172236
20.15578	176655
20.16203	173077
20.16828	177127
20.17455	174376
20.18080	172113
20.18705	171294
20.19332	176078
20.19957	191430
20.20582	209944
20.21208	225270
20.21833	255475
20.22458	302308
20.23083	325470
20.23710	345319
20.24335	295194
20.24960	257140
20.25587	221475
20.26212	197513
20.26837	186405
20.27463	186212
20.28088	184263
20.28713	199693
20.29340	265747
20.29965	425480
20.30590	647669
20.31217	809330
20.31842	735202
20.32467	538603
20.33093	348520
20.33718	242563
20.34343	217497
20.34970	222014
20.35595	233679
20.36220	221884
20.36847	207365
20.37472	193328
20.38097	192672
20.38723	190432
20.39348	187179
20.39973	182713
20.40600	176448
20.41225	184301
20.41850	201676
20.42477	255404
20.43102	390443
20.43727	657730
20.44352	1031580
20.44978	1225011
20.45603	1148588
20.46228	798732
20.46855	499374
20.47480	373749
20.48105	386195
20.48732	488187
20.49357	550145
20.49982	481285
20.50608	366286
20.51233	283223
20.51858	243628
20.52485	230645
20.53110	226170
20.53735	227077
20.54362	241662
20.54987	286357
20.55612	331476
20.56238	358958
20.56863	345193
20.57488	289513
20.58115	263075
20.58740	268323
20.59365	295408
20.59992	335161
20.60617	349297
20.61242	338929
20.61868	310448
20.62493	273188
20.63118	227381
20.63745	202555
20.64370	187349
20.64995	188069
20.65622	197530
20.66247	208463
20.66872	209664
20.67497	218105
20.68123	215317
20.68748	216400
20.69373	206667
20.70000	200567
20.70625	218226
20.71250	288212
20.71877	439230
20.72502	673478
20.73127	815246
20.73753	769648
20.74378	584610
20.75003	412838
20.75630	342469
20.76255	380947
20.76880	498437
20.77507	629588
20.78132	652806
20.78757	558364
20.79383	418262
20.80008	318896
20.80633	279471
20.81260	248343
20.81885	229070
20.82510	206458
20.83137	219889
20.83762	226846
20.84387	251962
20.85013	263103
20.85638	255158
20.86263	248056
20.86890	238117
20.87515	228495
20.88140	217345
20.88765	229600
20.89392	247034
20.90017	258956
20.90642	258944
20.91268	270447
20.91893	278567
20.92518	277269
20.93145	309611
20.93770	400022
20.94395	598151
20.95022	808088
20.95647	927540
20.96272	773670
20.96898	598793
20.97523	464427
20.98148	402102
20.98775	341648
20.99400	303287
21.00025	308637
21.00652	405753
21.01277	578637
21.01902	718034
21.02528	724086
21.03153	598952
21.03778	436959
21.04405	336543
21.05030	289579
21.05655	268961
21.06282	254790
21.06907	243196
21.07532	245835
21.08158	267770
21.08783	274422
21.09408	265539
21.10033	241087
21.10660	208215
21.11285	199856
21.11910	196136
21.12537	203973
21.13162	199906
21.13787	197011
21.14413	186746
21.15038	191963
21.15663	188397
21.16290	194965
21.16915	210247
21.17540	220146
21.18167	224444
21.18792	222160
21.19417	215759
21.20043	208469
21.20668	212129
21.21293	217159
21.21920	218044
21.22545	221286
21.23170	218977
21.23797	215206
21.24422	231819
21.25047	246112
21.25673	241924
21.26298	228684
21.26923	219425
21.27550	228869
21.28175	264503
21.28800	306597
21.29427	329650
21.30052	309236
21.30677	263630
21.31303	226326
21.31928	213412
21.32553	221788
21.33178	251185
21.33805	260061
21.34430	254305
21.35055	234597
21.35682	227336
21.36307	248025
21.36932	271915
21.37558	302833
21.38183	321022
21.38808	280310
21.39435	239427
21.40060	209568
21.40685	203803
21.41312	202757
21.41937	214424
21.42562	226111
21.43188	234300
21.43813	231581
21.44438	225620
21.45065	231364
21.45690	270311
21.46315	346638
21.46942	400596
21.47567	421465
21.48192	370714
21.48818	308687
21.49443	271377
21.50068	274890
21.50695	270584
21.51320	254143
21.51945	236501
21.52572	204716
21.53197	186118
21.53822	182328
21.54447	180268
21.55073	180805
21.55698	179614
21.56323	175978
21.56950	186750
21.57575	204870
21.58200	224716
21.58827	248720
21.59452	288797
21.60077	326306
21.60703	337904
21.61328	302983
21.61953	238658
21.62580	188922
21.63205	169394
21.63830	156986
21.64457	146837
21.65082	142707
21.65707	139575
21.66333	144008
21.66958	150552
21.67583	157887
21.68210	167190
21.68835	174156
21.69460	173164
21.70087	167334
21.70712	154748
21.71337	144796
21.71963	143353
21.72588	140097
21.73213	143784
21.73840	147235
21.74465	145299
21.75090	151458
21.75717	160622
21.76342	164505
21.76967	161845
21.77592	168161
21.78218	169641
21.78843	190869
21.79468	213351
21.80095	224749
21.80720	217948
21.81345	215501
21.81972	212876
21.82597	205501
21.83222	193691
21.83848	183614
21.84473	191267
21.85098	197290
21.85725	207930
21.86350	236100
21.86975	261728
21.87602	297578
21.88227	270951
21.88852	228526
21.89478	197138
21.90103	191764
21.90728	196850
21.91355	231585
21.91980	240610
21.92605	229187
21.93232	206173
21.93857	192263
21.94482	184735
21.95108	177925
21.95733	170376
21.96358	159967
21.96985	158880
21.97610	162560
21.98235	172409
21.98860	181054
21.99487	187281
22.00112	184661
22.00737	179738
22.01363	179899
22.01988	176936
22.02613	176285
22.03240	180275
22.03865	191228
22.04490	204836
22.05117	216670
22.05742	234499
22.06367	253478
22.06993	264875
22.07618	267647
22.08243	267969
22.08870	258619
22.09495	236903
22.10120	222483
22.10747	211465
22.11372	211373
22.11997	200885
22.12623	210730
22.13248	204966
22.13873	201169
22.14500	190639
22.15125	184808
22.15750	181386
22.16377	189016
22.17002	190582
22.17627	188249
22.18253	185632
22.18878	192423
22.19503	192608
22.20130	189913
22.20755	183039
22.21380	178755
22.22005	169750
22.22632	169233
22.23257	176277
22.23882	186442
22.24508	209871
22.25133	254991
22.25758	323890
22.26385	368372
22.27010	372130
22.27635	343833
22.28262	296589
22.28887	273719
22.29512	279340
22.30138	273908
22.30763	263266
22.31388	242886
22.32015	222457
22.32640	218814
22.33265	219349
22.33892	222705
22.34517	229259
22.35142	285086
22.35768	454635
22.36393	793891
22.37018	1185989
22.37645	1335060
22.38270	1053972
22.38895	619660
22.39522	365454
22.40147	246270
22.40772	208385
22.41398	200947
22.42023	206711
22.42648	212316
22.43273	233173
22.43900	251031
22.44525	285882
22.45150	329866
22.45777	402031
22.46402	500303
22.47027	513654
22.47653	463318
22.48278	375926
22.48903	291577
22.49530	251977
22.50155	240030
22.50780	228360
22.51407	214064
22.52032	204683
22.52657	206734
22.53283	220536
22.53908	278727
22.54533	421048
22.55160	578243
22.55785	671849
22.56410	579814
22.57037	467126
22.57662	368769
22.58287	294779
22.58913	255376
22.59538	234058
22.60163	221165
22.60790	212503
22.61415	209185
22.62040	198760
22.62667	196030
22.63292	200432
22.63917	199857
22.64543	204326
22.65168	200537
22.65793	205991
22.66418	206728
22.67045	221762
22.67670	248835
22.68295	276481
22.68922	289547
22.69547	272559
22.70172	253737
22.70798	218186
22.71423	202437
22.72048	194195
22.72675	190587
22.73300	195758
22.73925	205485
22.74552	207988
22.75177	211726
22.75802	217070
22.76428	226883
22.77053	238197
22.77678	268415
22.78305	409921
22.78930	1044899
22.79555	3061023
22.80182	6773196
22.80807	1.210689E+07
22.81432	1.72366E+07
22.82058	1.921178E+07
22.82683	1.325399E+07
22.83308	6669467
22.83935	2138963
22.84560	795290
22.85185	445027
22.85812	337793
22.86437	304526
22.87062	280727
22.87687	268282
22.88313	254394
22.88938	246281
22.89563	229326
22.90190	223090
22.90815	218239
22.91440	218651
22.92067	221264
22.92692	222181
22.93317	230350
22.93943	235056
22.94568	234582
22.95193	239734
22.95820	234090
22.96445	231024
22.97070	244457
22.97697	275882
22.98322	339022
22.98947	383752
22.99573	370842
23.00198	328824
23.00823	273772
23.01450	232182
23.02075	213816
23.02700	201725
23.03327	196210
23.03952	203736
23.04577	209731
23.05203	215137
23.05828	220119
23.06453	243026
23.07080	307644
23.07705	400479
23.08330	477675
23.08955	499981
23.09582	415856
23.10207	316468
23.10832	250592
23.11458	215604
23.12083	199410
23.12708	189495
23.13335	186219
23.13960	180059
23.14585	183083
23.15212	174876
23.15837	176802
23.16462	171896
23.17088	169743
23.17713	171351
23.18338	171045
23.18965	181687
23.19590	184012
23.20215	186061
23.20842	186929
23.21467	189190
23.22092	182804
23.22718	181414
23.23343	172533
23.23968	182706
23.24595	171793
23.25220	180262
23.25845	186895
23.26472	181631
23.27097	180689
23.27722	182320
23.28348	171797
23.28973	180177
23.29598	188423
23.30225	216544
23.30850	273103
23.31475	372380
23.32100	436769
23.32727	459604
23.33352	399245
23.33977	319083
23.34603	250112
23.35228	220859
23.35853	196414
23.36480	197772
23.37105	188291
23.37730	190922
23.38357	189431
23.38982	191910
23.39607	195460
23.40233	197029
23.40858	192194
23.41483	188622
23.42110	185190
23.42735	185880
23.43360	184713
23.43987	192383
23.44612	200645
23.45237	220385
23.45863	228600
23.46488	234759
23.47113	248458
23.47740	266803
23.48365	287809
23.48990	310889
23.49617	325344
23.50242	329117
23.50867	374114
23.51493	458074
23.52118	580082
23.52743	635752
23.53368	583267
23.53995	445321
23.54620	334568
23.55245	274589
23.55872	263035
23.56497	273769
23.57122	326587
23.57748	422175
23.58373	500990
23.58998	545357
23.59625	511941
23.60250	413660
23.60875	342534
23.61502	294123
23.62127	259261
23.62752	241819
23.63378	240546
23.64003	244426
23.64628	254066
23.65255	258162
23.65880	252430
23.66505	229007
23.67132	223142
23.67757	212708
23.68382	216544
23.69008	230961
23.69633	240959
23.70258	248223
23.70885	241720
23.71510	254100
23.72135	296730
23.72762	372526
23.73387	472554
23.74012	488447
23.74637	422962
23.75263	345648
23.75888	280529
23.76513	244831
23.77140	234680
23.77765	232108
23.78390	231783
23.79017	232476
23.79642	235019
23.80267	237751
23.80893	250599
23.81518	273109
23.82143	299429
23.82770	318642
23.83395	305803
23.84020	286512
23.84647	268550
23.85272	250649
23.85897	248277
23.86523	249136
23.87148	244952
23.87773	251232
23.88400	278003
23.89025	317668
23.89650	351273
23.90277	360892
23.90902	333673
23.91527	303266
23.92153	282896
23.92778	270872
23.93403	270393
23.94030	265956
23.94655	286160
23.95280	362018
23.95907	643814
23.96532	1445026
23.97157	3073330
23.97782	5648525
23.98408	8901033
23.99033	1.421959E+07
23.99658	2.025322E+07
24.00285	2.679417E+07
24.00910	2.981663E+07
24.01535	2.437947E+07
24.02162	1.549793E+07
24.02787	7286571
24.03412	2903001
24.04038	1452991
24.04663	990166
24.05288	783288
24.05915	636860
24.06540	576030
24.07165	547760
24.07792	547453
24.08417	545553
24.09042	545288
24.09668	658385
24.10293	1155201
24.10918	2225248
24.11545	4008395
24.12170	5695466
24.12795	6658171
24.13422	5404732
24.14047	3444589
24.14672	1923202
24.15298	1055174
24.15923	659486
24.16548	513339
24.17175	467512
24.17800	490184
24.18425	581839
24.19050	769538
24.19677	1081012
24.20302	1794607
24.20927	3625067
24.21553	7915402
24.22178	1.401698E+07
24.22803	2.154924E+07
24.23430	3.160856E+07
24.24055	3.664261E+07
24.24680	4.038594E+07
24.25307	4.230322E+07
24.25932	4.393014E+07
24.26557	4.311411E+07
24.27183	4.279268E+07
24.27808	4.193992E+07
24.28433	2.800138E+07
24.29060	6410062
24.29685	2955616
24.30310	2266419
24.30937	1951162
24.31562	1787635
24.32187	1654752
24.32813	1607039
24.33438	1601031
24.34063	1597771
24.34690	1644701
24.35315	1644085
24.35940	1676794
24.36567	1710708
24.37192	1802714
24.37817	1903031
24.38443	1853876
24.39068	1772301
24.39693	1706492
24.40318	1561882
24.40945	1448342
24.41570	1358037
24.42195	1316349
24.42822	1330520
24.43447	1508254
24.44072	1749521
24.44698	1976583
24.45323	1975703
24.45948	1760848
24.46575	1361035
24.47200	1094252
24.47825	941835
24.48452	861848
24.49077	810634
24.49702	773310
24.50328	750061
24.50953	729250
24.51578	711450
24.52205	682369
24.52830	658190
24.53455	642070
24.54082	620117
24.54707	591825
24.55332	591824
24.55958	556160
24.56583	529946
24.57208	522603
24.57835	504444
24.58460	508458
24.59085	501411
24.59712	490792
24.60337	460417
24.60962	431359
24.61588	402766
24.62213	377180
24.62838	365824
24.63463	363142
24.64090	356262
24.64715	342217
24.65340	321382
24.65967	317467
24.66592	304729
24.67217	301041
24.67843	315313
24.68468	333091
24.69093	343530
24.69720	347391
24.70345	344194
24.70970	334400
24.71597	331853
24.72222	330481
24.72847	311687
24.73473	281811
24.74098	268429
24.74723	252033
24.75350	246839
24.75975	240930
24.76600	245320
24.77227	249786
24.77852	264609
24.78477	265980
24.79103	265877
24.79728	252655
24.80353	239195
24.80980	221270
24.81605	213989
24.82230	211587
24.82857	205521
24.83482	203279
24.84107	194153
24.84732	188452
24.85358	186078
24.85983	184947
24.86608	195197
24.87235	202984
24.87860	214791
24.88485	239468
24.89112	268764
24.89737	287614
24.90362	284222
24.90988	266693
24.91613	243571
24.92238	248418
24.92865	261533
24.93490	277802
24.94115	307223
24.94742	410604
24.95367	568026
24.95992	720994
24.96618	717945
24.97243	593374
24.97868	441654
24.98495	330831
24.99120	280886
24.99745	254917
25.00372	235787
25.00997	230622
25.01622	224346
25.02248	225681
25.02873	227316
25.03498	235454
25.04125	239214
25.04750	237219
25.05375	225335
25.06002	215113
25.06627	210016
25.07252	205806
25.07877	204055
25.08503	202238
25.09128	200689
25.09753	204174
25.10380	204420
25.11005	198703
25.11630	201654
25.12257	213312
25.12882	229254
25.13507	244265
25.14133	259129
25.14758	243124
25.15383	213583
25.16010	190759
25.16635	175416
25.17260	179952
25.17887	196677
25.18512	223780
25.19137	258545
25.19763	279257
25.20388	265052
25.21013	227823
25.21640	193245
25.22265	173967
25.22890	163997
25.23517	163060
25.24142	160063
25.24767	154307
25.25393	154801
25.26018	156781
25.26643	158444
25.27270	155961
25.27895	172012
25.28520	201339
25.29145	255576
25.29772	326351
25.30397	353702
25.31022	334994
25.31648	285675
25.32273	230276
25.32898	196476
25.33525	182635
25.34150	171545
25.34775	170578
25.35402	165602
25.36027	163723
25.36652	165109
25.37278	169442
25.37903	171179
25.38528	172811
25.39155	176547
25.39780	175088
25.40405	197549
25.41032	211036
25.41657	217145
25.42282	207410
25.42908	204345
25.43533	188011
25.44158	188991
25.44785	187990
25.45410	182181
25.46035	181372
25.46662	174897
25.47287	171142
25.47912	165171
25.48538	176315
25.49163	201894
25.49788	236384
25.50415	287276
25.51040	318417
25.51665	318223
25.52290	291564
25.52917	277008
25.53542	324010
25.54167	429592
25.54793	559673
25.55418	577755
25.56043	478097
25.56670	336508
25.57295	243916
25.57920	200120
25.58547	177517
25.59172	167815
25.59797	167275
25.60423	175178
25.61048	172507
25.61673	174745
25.62300	167797
25.62925	160582
25.63550	155075
25.64177	152445
25.64802	149444
25.65427	148541
25.66053	140633
25.66678	147847
25.67303	144626
25.67930	151201
25.68555	148393
25.69180	148294
25.69807	155359
25.70432	146189
25.71057	149719
25.71683	138882
25.72308	136721
25.72933	141693
25.73558	140410
25.74185	139216
25.74810	145877
25.75435	145819
25.76062	150264
25.76687	143406
25.77312	142533
25.77938	141525
25.78563	144504
25.79188	138594
25.79815	139034
25.80440	137745
25.81065	135927
25.81692	137847
25.82317	134314
25.82942	134074
25.83568	133794
25.84193	135978
25.84818	136301
25.85445	131007
25.86070	134240
25.86695	139245
25.87322	143024
25.87947	136014
25.88572	138635
25.89198	132989
25.89823	131117
25.90448	129170
25.91075	135674
25.91700	128610
25.92325	133691
25.92952	134562
25.93577	137144
25.94202	138938
25.94827	136117
25.95453	130598
25.96078	134516
25.96703	135876
25.97330	135133
25.97955	144619
25.98580	155935
25.99207	150580
25.99832	151943
26.00457	138033
26.01083	135990
26.01708	133892
26.02333	138200
26.02960	141147
26.03585	141265
26.04210	145725
26.04837	150125
26.05462	146265
26.06087	148063
26.06713	149424
26.07338	144907
26.07963	138330
26.08590	134494
26.09215	132425
26.09840	133666
26.10467	135445
26.11092	131231
26.11717	132513
26.12343	134618
26.12968	131428
26.13593	134436
26.14220	128288
26.14845	132259
26.15470	127513
26.16097	131115
26.16722	136294
26.17347	133733
26.17972	136643
26.18598	134598
26.19223	136847
26.19848	134331
26.20475	134585
26.21100	133394
26.21725	132058
26.22352	135408
26.22977	134461
26.23602	132751
26.24228	133737
26.24853	136167
26.25478	131822
26.26105	131959
26.26730	129378
26.27355	132823
26.27982	133075
26.28607	131849
26.29232	133585
26.29858	134380
26.30483	136357
26.31108	135853
26.31735	136498
26.32360	139251
26.32985	135331
26.33612	136092
26.34237	134234
26.34862	142114
26.35488	144996
26.36113	151458
26.36738	178342
26.37365	225633
26.37990	306315
26.38615	366735
26.39240	388225
26.39867	319357
26.40492	232003
26.41117	184114
26.41743	163334
26.42368	158617
26.42993	153042
26.43620	146808
26.44245	143954
26.44870	144081
26.45497	150579
26.46122	147093
26.46747	146303
26.47373	150013
26.47998	151852
26.48623	153811
26.49250	152921
26.49875	153672
26.50500	150387
26.51127	153977
26.51752	151523
26.52377	156494
26.53003	167390
26.53628	179184
26.54253	182885
26.54880	177709
26.55505	165165
26.56130	152845
26.56757	151633
26.57382	144321
26.58007	146787
26.58633	151655
26.59258	150396
26.59883	148975
26.60508	157045
26.61135	161735
26.61760	169914
26.62385	173165
26.63012	169616
26.63637	162590
26.64262	157757
26.64888	158736
26.65513	156468
26.66138	175049
26.66765	190511
26.67390	217188
26.68015	205897
26.68642	206179
26.69267	206873
26.69892	222463
26.70518	246931
26.71143	251028
26.71768	233029
26.72395	207441
26.73020	182197
26.73645	175197
26.74272	167876
26.74897	170071
26.75522	201438
26.76148	264950
26.76773	337939
26.77398	405386
26.78025	424957
26.78650	372397
26.79275	321869
26.79902	297524
26.80527	297088
26.81152	279076
26.81778	263682
26.82403	282017
26.83028	351413
26.83653	486328
26.84280	625333
26.84905	661598
26.85530	537091
26.86157	380643
26.86782	284760
26.87407	248798
26.88033	255806
26.88658	312234
26.89283	372807
26.89910	478173
26.90535	805461
26.91160	1769209
26.91787	4110809
26.92412	7974435
26.93037	1.364389E+07
26.93663	1.988605E+07
26.94288	2.582934E+07
26.94913	2.32241E+07
26.95540	1.538796E+07
26.96165	6605151
26.96790	2890264
26.97417	1618674
26.98042	1031285
26.98667	688527
26.99293	499379
26.99918	396592
27.00543	377719
27.01170	424980
27.01795	601765
27.02420	883248
27.03047	1130882
27.03672	1095708
27.04297	830486
27.04922	585641
27.05548	433788
27.06173	370203
27.06798	339569
27.07425	320343
27.08050	300562
27.08675	274254
27.09302	256267
27.09927	243685
27.10552	237420
27.11178	230209
27.11803	227442
27.12428	243794
27.13055	295466
27.13680	360191
27.14305	410067
27.14932	419433
27.15557	368176
27.16182	306049
27.16808	265994
27.17433	252647
27.18058	245996
27.18685	240605
27.19310	234896
27.19935	224924
27.20562	225559
27.21187	230769
27.21812	229772
27.22438	232212
27.23063	225713
27.23688	221737
27.24315	227882
27.24940	237680
27.25565	242729
27.26192	238948
27.26817	236572
27.27442	224500
27.28067	219172
27.28693	215394
27.29318	215665
27.29943	212883
27.30570	213545
27.31195	211975
27.31820	213104
27.32447	217971
27.33072	216103
27.33697	210689
27.34323	210126
27.34948	209242
27.35573	218173
27.36200	215061
27.36825	219758
27.37450	214166
27.38077	212662
27.38702	223597
27.39327	228908
27.39953	228209
27.40578	249122
27.41203	264336
27.41830	272326
27.42455	278012
27.43080	253001
27.43707	234558
27.44332	223830
27.44957	213200
27.45583	211658
27.46208	204790
27.46833	204608
27.47460	195460
27.48085	200305
27.48710	202907
27.49335	207011
27.49962	201959
27.50587	197675
27.51212	190955
27.51838	199074
27.52463	199271
27.53088	196075
27.53715	205704
27.54340	202419
27.54965	205449
27.55592	195381
27.56217	191530
27.56842	194172
27.57468	192878
27.58093	194958
27.58718	203338
27.59345	202319
27.59970	194761
27.60595	199809
27.61222	203057
27.61847	200053
27.62472	200770
27.63098	201027
27.63723	199134
27.64348	202855
27.64975	201401
27.65600	196858
27.66225	203906
27.66852	212369
27.67477	203636
27.68102	214334
27.68728	210873
27.69353	207527
27.69978	210332
27.70605	210298
27.71230	218482
27.71855	213686
27.72480	221722
27.73107	227132
27.73732	225316
27.74357	216243
27.74983	213705
27.75608	219827
27.76233	221280
27.76860	223019
27.77485	221355
27.78110	215130
27.78737	215390
27.79362	212493
27.79987	209143
27.80613	208927
27.81238	213499
27.81863	205344
27.82490	205096
27.83115	207341
27.83740	212032
27.84367	220146
27.84992	227385
27.85617	231882
27.86243	242055
27.86868	252095
27.87493	249238
27.88120	245482
27.88745	231881
27.89370	233525
27.89997	228766
27.90622	221049
27.91247	221627
27.91873	226213
27.92498	224197
27.93123	218420
27.93748	213055
27.94375	212349
27.95000	213475
27.95625	220601
27.96252	218237
27.96877	216600
27.97502	215336
27.98128	221624
27.98753	221014
27.99378	232082
28.00005	232981
28.00630	239285
28.01255	235469
28.01882	236389
28.02507	223747
28.03132	220826
28.03758	220421
28.04383	222558
28.05008	227963
28.05635	221259
28.06260	224119
28.06885	224193
28.07512	219265
28.08137	218306
28.08762	220685
28.09388	219635
28.10013	223187
28.10638	224525
28.11265	224125
28.11890	222822
28.12515	230166
28.13142	226321
28.13767	227606
28.14392	229323
28.15018	225370
28.15643	229004
28.16268	226999
28.16893	223433
28.17520	221150
28.18145	229142
28.18770	224422
28.19397	227699
28.20022	225394
28.20647	218593
28.21273	224739
28.21898	223102
28.22523	230876
28.23150	228132
28.23775	227285
28.24400	226838
28.25027	234222
28.25652	228094
28.26277	227950
28.26903	227666
28.27528	232970
28.28153	240523
28.28780	233471
28.29405	238657
28.30030	239957
28.30657	249258
28.31282	243937
28.31907	250540
28.32533	261518
28.33158	257376
28.33783	265809
28.34410	264079
28.35035	265957
28.35660	278922
28.36287	299828
28.36912	293788
28.37537	305902
28.38162	320069
28.38788	312224
28.39413	312814
28.40038	321938
28.40665	327056
28.41290	327068
28.41915	319453
28.42542	318896
28.43167	319794
28.43792	322555
28.44418	314516
28.45043	304928
28.45668	296527
28.46295	290746
28.46920	286748
28.47545	284809
28.48172	281910
28.48797	281452
28.49422	268557
28.50048	270775
28.50673	257978
28.51298	263344
28.51925	252258
28.52550	253863
28.53175	257793
28.53802	254241
28.54427	253081
28.55052	248523
28.55678	239260
28.56303	239893
28.56928	245090
28.57555	236596
28.58180	235788
28.58805	245042
28.59430	242627
28.60057	235061
28.60682	237271
28.61307	240748
28.61933	242055
28.62558	234039
28.63183	229516
28.63810	235998
28.64435	239292
28.65060	233668
28.65687	243665
28.66312	243235
28.66937	234958
28.67563	233144
28.68188	232607
28.68813	233992
28.69440	237982
28.70065	227672
28.70690	232575
28.71317	228500
28.71942	230267
28.72567	233698
28.73193	233489
28.73818	234620
28.74443	238384
28.75070	236404
28.75695	230919
28.76320	230757
28.76947	232621
28.77572	227020
28.78197	226199
28.78823	226731
28.79448	232278
28.80073	227649
28.80700	226483
28.81325	230082
28.81950	226450
28.82575	230644
28.83202	231821
28.83827	234839
28.84452	223676
28.85078	235016
28.85703	229990
28.86328	230009
28.86955	222350
28.87580	220284
28.88205	222120
28.88832	230105
28.89457	224111
28.90082	224118
28.90708	227887
28.91333	227971
28.91958	225656
28.92585	218221
28.93210	227252
28.93835	221342
28.94462	229065
28.95087	224230
28.95712	228160
28.96338	219950
28.96963	218729
28.97588	230114
28.98215	220757
28.98840	222282
28.99465	228996
29.00092	226438
29.00717	220552
29.01342	224309
29.01968	235430
29.02593	223014
29.03218	228092
29.03843	223153
29.04470	217937
29.05095	223161
29.05720	230014
29.06347	216549
29.06972	226582
29.07597	224903
29.08223	224659
29.08848	225749
29.09473	218901
29.10100	222770
29.10725	222918
29.11350	219490
29.11977	218912
29.12602	217713
29.13227	226173
29.13853	215561
29.14478	218567
29.15103	223302
29.15730	218287
29.16355	227425
29.16980	220155
29.17607	214909
29.18232	218526
29.18857	225287
29.19483	217986
29.20108	223527
29.20733	220492
29.21360	222179
29.21985	228186
29.22610	227529
29.23237	232844
29.23862	234766
29.24487	240113
29.25112	240335
29.25738	246465
29.26363	242222
29.26988	230567
29.27615	225904
29.28240	226144
29.28865	225067
29.29492	221397
29.30117	226927
29.30742	218840
29.31368	222748
29.31993	223080
29.32618	224172
29.33245	227343
29.33870	216689
29.34495	218580
29.35122	215844
29.35747	215428
29.36372	219518
29.36998	214257
29.37623	213787
29.38248	220930
29.38875	222502
29.39500	223935
29.40125	217933
29.40752	216154
29.41377	214949
29.42002	213854
29.42628	219806
29.43253	214490
29.43878	222199
29.44505	216869
29.45130	212799
29.45755	218908
29.46382	214126
29.47007	213364
29.47632	220239
29.48257	219675
29.48883	223447
29.49508	214379
29.50133	211293
29.50760	216534
29.51385	220290
29.52010	213264
29.52637	219148
29.53262	217805
29.53887	211256
29.54513	220636
29.55138	216216
29.55763	222444
29.56390	220828
29.57015	209387
29.57640	218803
29.58267	206820
29.58892	208147
29.59517	211814
29.60143	206342
29.60768	210655
29.61393	216607
29.62020	221467
29.62645	222702
29.63270	220014
29.63897	219445
29.64522	210942
29.65147	215754
29.65773	210323
29.66398	207321
29.67023	205824
29.67650	218205
29.68275	219264
29.68900	210421
29.69525	211183
29.70152	206301
29.70777	215859
29.71402	209808
29.72028	218668
29.72653	216677
29.73278	210774
29.73905	209800
29.74530	216531
29.75155	210548
29.75782	210417
29.76407	210107
29.77032	214464
29.77658	212425
29.78283	216347
29.78908	210126
29.79535	217830
29.80160	210365
29.80785	217413
29.81412	217743
29.82037	220065
29.82662	213847
29.83288	216150
29.83913	209013
29.84538	208731
29.85165	212508
29.85790	211542
29.86415	208875
29.87042	213869
29.87667	204587
29.88292	216320
29.88918	212821
29.89543	205105
29.90168	212684
29.90795	207905
29.91420	216223
29.92045	207790
29.92670	207292
29.93297	207485
29.93922	215480
29.94547	207712
29.95173	211558
29.95798	212477
29.96423	203997
29.97050	211523
29.97675	205112
29.98300	201850
29.98927	208454
29.99552	205144
30.00177	212145
30.00803	206310
30.01428	216671
30.02053	210791
30.02680	205749
30.03305	209833
30.03930	210605
30.04557	202355
30.05182	208950
30.05807	201929
30.06433	203860
30.07058	205050
30.07683	221596
30.08310	205405
30.08935	212886
30.09560	200989
30.10187	210148
30.10812	206052
30.11437	203946
30.12063	202940
30.12688	200631
30.13313	210461
30.13938	202068
30.14565	210346
30.15190	207941
30.15815	201653
30.16442	210689
30.17067	203022
30.17692	200696
30.18318	201607
30.18943	199625
30.19568	204922
30.20195	207407
30.20820	207730
30.21445	205298
30.22072	211228
30.22697	202864
30.23322	203416
30.23948	197017
30.24573	203938
30.25198	211471
30.25825	208665
30.26450	208731
30.27075	204591
30.27702	207639
30.28327	201582
30.28952	199048
30.29578	206647
30.30203	197371
30.30828	198126
30.31455	199632
30.32080	202961
30.32705	201981
30.33332	202565
30.33957	202511
30.34582	209536
30.35208	199766
30.35833	203045
30.36458	201288
30.37083	203744
30.37710	197868
30.38335	197879
30.38960	197820
30.39587	203483
30.40212	203421
30.40837	197023
30.41463	204588
30.42088	207077
30.42713	194248
30.43340	199030
30.43965	204573
30.44590	197093
30.45217	198657
30.45842	202877
30.46467	194748
30.47093	192121
30.47718	195038
30.48343	196102
30.48970	203516
30.49595	198813
30.50220	196827
30.50847	195097
30.51472	202688
30.52097	194297
30.52723	200932
30.53348	195297
30.53973	198895
30.54600	199654
30.55225	195520
30.55850	192767
30.56477	196026
30.57102	197234
30.57727	199905
30.58352	197739
30.58978	196823
30.59603	195238
30.60228	197678
30.60855	196300
30.61480	191425
30.62105	196938
30.62732	195762
30.63357	196544
30.63982	193521
30.64608	200062
30.65233	198037
30.65858	197847
30.66485	200514
30.67110	202674
30.67735	199609
30.68362	202093
30.68987	207572
30.69612	211885
30.70238	224034
30.70863	219623
30.71488	220974
30.72115	220645
30.72740	208605
30.73365	204213
30.73992	207293
30.74617	203396
30.75242	199966
30.75868	206116
30.76493	201666
30.77118	205263
30.77745	195853
30.78370	197387
30.78995	199320
30.79622	196348
30.80247	203916
30.80872	194909
30.81497	196653
30.82123	200130
30.82748	194238
30.83373	189270
30.84000	196866
30.84625	199109
30.85250	190983
30.85877	192081
30.86502	199119
30.87127	198577
30.87753	199146
30.88378	198457
30.89003	198328
30.89630	190824
30.90255	192975
30.90880	200633
30.91507	198710
30.92132	191333
30.92757	196384
30.93383	192976
30.94008	194961
30.94633	193594
30.95260	190801
30.95885	192276
30.96510	195249
30.97137	194733
30.97762	194446
30.98387	189893
30.99013	199606
30.99638	193729
31.00263	198078
31.00890	194906
31.01515	207059
31.02140	206734
31.02765	196505
31.03392	206754
31.04017	202084
31.04642	191094
31.05268	197814
31.05893	195329
31.06518	193027
31.07145	191132
31.07770	190025
31.08395	191040
31.09022	196944
31.09647	186126
31.10272	196060
31.10898	193714
31.11523	200670
31.12148	189190
31.12775	188160
31.13400	187126
31.14025	191048
31.14652	188949
31.15277	198885
31.15902	187104
31.16528	188331
31.17153	188267
31.17778	185630
31.18405	193828
31.19030	188359
31.19655	197021
31.20282	190777
31.20907	195986
31.21532	196644
31.22158	187327
31.22783	183852
31.23408	193484
31.24033	185936
31.24660	187017
31.25285	196085
31.25910	185451
31.26537	185013
31.27162	191641
31.27787	192872
31.28413	185264
31.29038	191278
31.29663	188649
31.30290	190308
31.30915	187476
31.31540	186826
31.32167	187788
31.32792	190534
31.33417	187119
31.34043	191252
31.34668	192011
31.35293	190161
31.35920	187630
31.36545	196618
31.37170	187768
31.37797	192629
31.38422	197382
31.39047	195220
31.39673	196747
31.40298	193557
31.40923	192727
31.41550	192806
31.42175	196588
31.42800	191207
31.43427	191409
31.44052	190070
31.44677	192502
31.45303	189638
31.45928	192583
31.46553	195132
31.47178	189695
31.47805	189970
31.48430	198342
31.49055	192823
31.49682	192986
31.50307	190307
31.50932	189491
31.51558	187872
31.52183	192421
31.52808	186996
31.53435	185270
31.54060	192292
31.54685	186930
31.55312	185787
31.55937	184588
31.56562	186503
31.57188	187833
31.57813	185883
31.58438	185728
31.59065	184891
31.59690	184663
31.60315	184415
31.60942	183557
31.61567	185321
31.62192	185720
31.62818	189874
31.63443	184213
31.64068	182103
31.64695	185130
31.65320	180594
31.65945	191055
31.66572	183117
31.67197	184540
31.67822	182746
31.68447	189767
31.69073	182021
31.69698	182308
31.70323	182525
31.70950	179018
31.71575	190567
31.72200	180211
31.72827	189297
31.73452	181628
31.74077	179980
31.74703	180363
31.75328	182384
31.75953	186932
31.76580	189496
31.77205	184142
31.77830	184891
31.78457	186949
31.79082	181554
31.79707	182028
31.80333	180897
31.80958	183033
31.81583	182383
31.82210	178853
31.82835	182685
31.83460	178446
31.84087	189432
31.84712	180767
31.85337	177357
31.85963	179634
31.86588	184296
31.87213	182583
31.87840	178947
31.88465	185587
31.89090	184394
31.89715	186983
31.90342	186338
31.90967	188877
31.91592	181986
31.92218	186470
31.92843	177299
31.93468	185635
31.94095	179481
31.94720	185822
31.95345	179181
31.95972	182375
31.96597	179067
31.97222	181890
31.97848	186600
31.98473	182758
31.99098	173768
31.99725	179806
32.00350	176970
32.00975	185954
32.01602	183449
32.02227	179320
32.02852	178096
32.03478	185760
32.04103	176477
32.04728	177025
32.05355	180471
32.05980	184755
32.06605	175643
32.07232	175129
32.07857	181132
32.08482	177491
32.09108	179853
32.09733	174940
32.10358	179731
32.10985	174890
32.11610	174113
32.12235	182561
32.12860	179702
32.13487	176856
32.14112	177916
32.14737	183817
32.15363	178821
32.15988	175476
32.16613	180051
32.17240	177374
32.17865	174691
32.18490	182310
32.19117	173968
32.19742	179901
32.20367	178856
32.20993	181233
32.21618	181137
32.22243	173469
32.22870	172755
32.23495	174191
32.24120	180460
32.24747	179138
32.25372	177606
32.25997	175863
32.26623	177732
32.27248	181813
32.27873	177197
32.28500	178650
32.29125	176511
32.29750	175646
32.30377	180191
32.31002	176911
32.31627	173272
32.32253	182193
32.32878	180068
32.33503	175716
32.34128	176524
32.34755	174086
32.35380	170803
32.36005	172829
32.36632	176876
32.37257	179123
32.37882	175290
32.38508	179531
32.39133	172249
32.39758	172377
32.40385	188149
32.41010	177039
32.41635	175245
32.42262	178654
32.42887	172210
32.43512	174430
32.44138	175639
32.44763	173069
32.45388	173079
32.46015	172660
32.46640	173647
32.47265	170472
32.47892	171444
32.48517	175175
32.49142	170342
32.49768	178765
32.50393	173261
32.51018	179052
32.51645	172826
32.52270	175895
32.52895	173213
32.53522	180595
32.54147	171536
32.54772	176319
32.55398	174228
32.56023	175864
32.56648	181151
32.57273	179259
32.57900	173860
32.58525	172366
32.59150	176941
32.59777	174838
32.60402	172409
32.61027	166864
32.61653	167824
32.62278	177277
32.62903	174041
32.63530	170734
32.64155	168108
32.64780	170618
32.65407	172033
32.66032	171401
32.66657	178316
32.67283	174588
32.67908	177546
32.68533	170646
32.69160	168734
32.69785	170775
32.70410	171612
32.71037	165494
32.71662	176952
32.72287	170934
32.72913	167573
32.73538	170720
32.74163	171856
32.74790	170931
32.75415	174466
32.76040	168436
32.76667	168165
32.77292	171264
32.77917	164712
32.78542	169265
32.79168	171853
32.79793	179011
32.80418	174079
32.81045	175803
32.81670	174559
32.82295	171427
32.82922	169341
32.83547	172372
32.84172	166949
32.84798	172346
32.85423	176574
32.86048	175436
32.86675	173494
32.87300	167314
32.87925	174499
32.88552	175286
32.89177	169023
32.89802	174338
32.90428	173179
32.91053	171914
32.91678	173175
32.92305	164444
32.92930	169140
32.93555	173650
32.94182	172206
32.94807	168724
32.95432	167242
32.96058	165065
32.96683	167206
32.97308	171371
32.97935	171152
32.98560	177004
32.99185	176817
32.99812	170434
33.00437	171632
33.01062	164337
33.01687	165386
33.02313	167882
33.02938	165435
33.03563	171541
33.04190	170006
33.04815	169951
33.05440	167718
33.06067	167476
33.06692	166633
33.07317	166538
33.07943	170217
33.08568	168795
33.09193	167340
33.09820	170589
33.10445	166345
33.11070	165645
33.11697	170958
33.12322	171760
33.12947	174175
33.13573	175614
33.14198	175014
33.14823	173522
33.15450	170350
33.16075	180354
33.16700	176787
33.17327	180518
33.17952	186619
33.18577	178152
33.19203	184223
33.19828	181560
33.20453	183040
33.21080	183327
33.21705	177863
33.22330	173583
33.22955	176369
33.23582	169922
33.24207	178429
33.24832	166412
33.25458	168350
33.26083	168187
33.26708	164909
33.27335	163969
33.27960	171520
33.28585	167241
33.29212	175303
33.29837	192917
33.30462	177058
33.31088	169332
33.31713	167206
33.32338	162099
33.32965	167277
33.33590	170785
33.34215	170085
33.34842	162618
33.35467	164030
33.36092	164417
33.36718	168549
33.37343	169360
33.37968	168171
33.38595	169626
33.39220	165069
33.39845	166949
33.40472	166691
33.41097	163873
33.41722	168105
33.42348	170935
33.42973	164578
33.43598	164179
33.44225	164238
33.44850	166023
33.45475	170946
33.46100	165905
33.46727	161471
33.47352	170817
33.47977	164768
33.48603	168147
33.49228	169186
33.49853	160628
33.50480	162960
33.51105	163918
33.51730	160459
33.52357	173322
33.52982	168404
33.53607	164743
33.54233	165924
33.54858	164062
33.55483	159718
33.56110	160585
33.56735	163418
33.57360	165994
33.57987	166287
33.58612	167681
33.59237	165070
33.59863	159337
33.60488	170502
33.61113	162426
33.61740	163243
33.62365	158707
33.62990	162729
33.63617	160627
33.64242	165153
33.64867	161327
33.65493	158655
33.66118	161494
33.66743	160758
33.67368	162540
33.67995	161053
33.68620	158498
33.69245	159060
33.69872	163081
33.70497	164191
33.71122	165229
33.71748	163457
33.72373	162643
33.72998	160220
33.73625	160307
33.74250	162675
33.74875	163457
33.75502	160072
33.76127	162126
33.76752	165620
33.77378	161293
33.78003	167053
33.78628	164515
33.79255	163315
33.79880	160459
33.80505	157224
33.81132	159061
33.81757	163716
33.82382	158339
33.83008	156887
33.83633	158984
33.84258	159595
33.84885	159580
33.85510	166641
33.86135	159991
33.86762	157807
33.87387	161803
33.88012	157026
33.88637	160306
33.89263	157438
33.89888	164603
33.90513	164949
33.91140	159081
33.91765	160181
33.92390	162685
33.93017	154882
33.93642	156090
33.94267	157619
33.94893	159614
33.95518	158072
33.96143	157420
33.96770	159709
33.97395	159641
33.98020	160031
33.98647	160928
33.99272	163685
33.99897	157425
34.00523	159718
34.01148	156749
34.01773	157681
34.02400	162454
34.03025	158962
34.03650	155556
34.04277	160999
34.04902	161222
34.05527	160254
34.06153	161396
34.06778	158013
34.07403	157872
34.08030	155334
34.08655	157076
34.09280	157978
34.09907	157991
34.10532	159691
34.11157	157873
34.11782	159177
34.12408	155333
34.13033	156508
34.13658	156202
34.14285	157858
34.14910	163648
34.15535	156860
34.16162	161657
34.16787	159752
34.17412	159697
34.18038	156036
34.18663	156328
34.19288	157583
34.19915	156223
34.20540	154369
34.21165	158489
34.21792	153161
34.22417	154463
34.23042	154362
34.23668	157186
34.24293	155725
34.24918	160957
34.25545	160337
34.26170	155961
34.26795	157687
34.27422	152673
34.28047	160470
34.28672	158093
34.29298	159182
34.29923	159021
34.30548	157064
34.31175	158839
34.31800	154346
34.32425	161588
34.33050	153281
34.33677	155850
34.34302	152593
34.34927	154202
34.35553	152486
34.36178	155326
34.36803	155588
34.37430	154113
34.38055	153684
34.38680	153618
34.39307	152999
34.39932	152526
34.40557	154933
34.41183	153997
34.41808	156206
34.42433	153592
34.43060	154825
34.43685	155139
34.44310	158157
34.44937	153376
34.45562	152258
34.46187	155685
34.46813	156151
34.47438	153165
34.48063	150994
34.48690	152601
34.49315	156588
34.49940	153616
34.50567	155334
34.51192	151896
34.51817	154540
34.52443	156421
34.53068	149939
34.53693	159598
34.54318	152674
34.54945	153562
34.55570	151673
34.56195	152261
34.56822	157809
34.57447	158145
34.58072	157247
34.58698	156740
34.59323	162019
34.59948	150758
34.60575	156054
34.61200	153582
34.61825	157201
34.62452	154141
34.63077	151323
34.63702	154541
34.64328	154508
34.64953	151209
34.65578	155295
34.66205	151027
34.66830	158773
34.67455	152151
34.68082	153972
34.68707	155844
34.69332	154430
34.69958	157696
34.70583	153535
34.71208	155307
34.71835	151183
34.72460	151860
34.73085	153792
34.73712	151242
34.74337	149608
34.74962	152971
34.75588	152619
34.76213	150738
34.76838	154224
34.77463	155065
34.78090	149423
34.78715	152275
34.79340	153281
34.79967	152000
34.80592	152070
34.81217	155604
34.81843	154607
34.82468	149501
34.83093	155100
34.83720	156046
34.84345	150862
34.84970	147980
34.85597	148703
34.86222	146759
34.86847	147306
34.87473	149115
34.88098	146518
34.88723	150328
34.89350	150452
34.89975	148288
34.90600	149174
34.91227	150872
34.91852	149791
34.92477	149065
34.93103	154286
34.93728	145234
34.94353	151238
34.94980	153175
34.95605	152624
34.96230	152331
34.96857	153050
34.97482	150875
34.98107	154993
34.98732	149961
34.99358	150251
34.99983	152873
35.00608	150156
35.01235	148922
35.01860	149601
35.02485	145551
35.03112	151900
35.03737	151432
35.04362	150747
35.04988	148927
35.05613	147142
35.06238	150216
35.06865	146878
35.07490	151362
35.08115	148789
35.08742	152937
35.09367	147774
35.09992	148660
35.10618	145908
35.11243	153715
35.11868	148223
35.12495	152881
35.13120	146442
35.13745	145272
35.14372	157806
35.14997	152222
35.15622	148956
35.16248	144590
35.16873	150601
35.17498	155676
35.18125	145730
35.18750	146772
35.19375	150400
35.20002	148392
35.20627	147375
35.21252	144353
35.21877	148681
35.22503	150916
35.23128	144872
35.23753	145741
35.24380	149061
35.25005	145611
35.25630	154126
35.26257	152790
35.26882	146536
35.27507	146257
35.28133	154058
35.28758	151071
35.29383	150262
35.30010	144872
35.30635	149042
35.31260	144563
35.31887	150304
35.32512	148215
35.33137	147792
35.33763	147935
35.34388	148012
35.35013	146772
35.35640	143338
35.36265	146182
35.36890	144660
35.37517	147980
35.38142	151045
35.38767	147937
35.39393	147655
35.40018	144829
35.40643	150398
35.41270	143770
35.41895	145670
35.42520	145253
35.43145	144075
35.43772	144345
35.44397	147493
35.45022	146234
35.45648	147615
35.46273	146225
35.46898	149923
35.47525	144352
35.48150	144447
35.48775	148503
35.49402	146905
35.50027	147560
35.50652	146614
35.51278	144194
35.51903	150327
35.52528	144879
35.53155	149496
35.53780	147659
35.54405	146290
35.55032	141788
35.55657	149606
35.56282	145107
35.56908	150347
35.57533	144243
35.58158	152157
35.58785	146812
35.59410	144528
35.60035	144715
35.60662	145269
35.61287	148525
35.61912	145928
35.62538	146236
35.63163	145775
35.63788	146329
35.64415	145102
35.65040	141433
35.65665	142726
35.66290	141963
35.66917	149210
35.67542	143798
35.68167	144563
35.68793	145538
35.69418	147460
35.70043	143330
35.70670	145684
35.71295	143424
35.71920	145343
35.72547	141697
35.73172	144818
35.73797	146463
35.74423	147007
35.75048	138095
35.75673	146020
35.76300	146991
35.76925	141561
35.77550	142010
35.78177	139928
35.78802	146948
35.79427	145612
35.80053	145046
35.80678	139630
35.81303	141705
35.81930	140594
35.82555	142201
35.83180	147262
35.83807	139487
35.84432	142699
35.85057	140987
35.85683	141584
35.86308	142403
35.86933	138854
35.87558	139259
35.88185	145623
35.88810	143447
35.89435	141780
35.90062	143573
35.90687	139701
35.91312	142958
35.91938	142459
35.92563	138524
35.93188	139829
35.93815	141663
35.94440	145323
35.95065	144038
35.95692	143674
35.96317	142016
35.96942	143885
35.97568	141456
35.98193	142529
35.98818	144098
35.99445	139729
36.00070	146584
36.00695	139774
36.01322	137799
36.01947	140114
36.02572	140971
36.03198	137458
36.03823	147410
36.04448	140037
36.05075	139495
36.05700	144235
36.06325	146063
36.06952	140443
36.07577	140508
36.08202	143189
36.08828	139430
36.09453	139282
36.10078	146861
36.10703	145205
36.11330	142791
36.11955	141009
36.12580	140943
36.13207	141936
36.13832	139477
36.14457	136431
36.15083	139326
36.15708	145708
36.16333	140267
36.16960	140814
36.17585	145012
36.18210	145314
36.18837	145860
36.19462	141697
36.20087	138548
36.20713	146881
36.21338	147187
36.21963	140371
36.22590	148742
36.23215	145181
36.23840	146635
36.24467	151339
36.25092	147991
36.25717	158057
36.26343	157180
36.26968	164785
36.27593	169993
36.28220	184566
36.28845	189833
36.29470	197046
36.30097	206567
36.30722	225481
36.31347	233033
36.31972	246264
36.32598	253742
36.33223	254720
36.33848	264306
36.34475	259948
36.35100	273300
36.35725	264282
36.36352	258813
36.36977	248040
36.37602	240165
36.38228	222440
36.38853	212632
36.39478	201003
36.40105	192823
36.40730	189633
36.41355	179376
36.41982	174853
36.42607	168093
36.43232	157919
36.43858	161466
36.44483	155194
36.45108	153739
36.45735	153447
36.46360	150577
36.46985	146688
36.47612	148853
36.48237	147694
36.48862	147767
36.49488	148875
36.50113	146972
36.50738	153419
36.51365	149314
36.51990	149306
36.52615	142564
36.53240	141864
36.53867	141552
36.54492	143233
36.55117	142593
36.55743	149915
36.56368	143734
36.56993	141469
36.57620	141304
36.58245	142036
36.58870	147015
36.59497	140706
36.60122	144900
36.60747	145814
36.61373	144386
36.61998	146343
36.62623	140147
36.63250	147502
36.63875	143318
36.64500	141602
36.65127	142577
36.65752	142621
36.66377	148640
36.67003	141824
36.67628	145398
36.68253	143170
36.68880	145036
36.69505	140491
36.70130	137777
36.70757	141307
36.71382	138931
36.72007	164021
36.72633	172586
36.73258	166618
36.73883	142334
36.74510	146894
36.75135	144048
36.75760	139900
36.76385	147450
36.77012	139987
36.77637	140535
36.78262	138019
36.78888	141743
36.79513	137006
36.80138	136331
36.80765	137662
36.81390	135419
36.82015	139139
36.82642	143001
36.83267	137383
36.83892	141237
36.84518	141722
36.85143	140790
36.85768	136751
36.86395	141973
36.87020	143518
36.87645	138015
36.88272	136959
36.88897	135671
36.89522	141296
36.90148	140862
36.90773	138283
36.91398	135341
36.92025	140451
36.92650	136200
36.93275	139493
36.93902	137177
36.94527	133405
36.95152	136798
36.95778	135847
36.96403	135448
36.97028	141992
36.97653	136658
36.98280	138975
36.98905	137734
36.99530	137144
37.00157	139209
37.00782	135102
37.01407	134491
37.02033	139334
37.02658	143491
37.03283	135124
37.03910	136739
37.04535	140577
37.05160	140425
37.05787	133489
37.06412	137546
37.07037	133779
37.07663	138733
37.08288	133575
37.08913	133564
37.09540	133874
37.10165	138869
37.10790	138006
37.11417	134044
37.12042	135203
37.12667	132510
37.13293	138381
37.13918	134658
37.14543	136399
37.15170	138555
37.15795	135513
37.16420	141520
37.17047	136914
37.17672	140603
37.18297	134615
37.18922	136414
37.19548	130448
37.20173	132745
37.20798	134936
37.21425	134070
37.22050	139683
37.22675	134843
37.23302	135175
37.23927	140195
37.24552	137123
37.25178	139247
37.25803	137717
37.26428	132465
37.27055	134594
37.27680	140192
37.28305	133512
37.28932	136409
37.29557	132811
37.30182	132087
37.30808	134870
37.31433	136823
37.32058	134813
37.32685	133321
37.33310	133565
37.33935	134763
37.34562	136162
37.35187	136958
37.35812	135689
37.36438	129813
37.37063	134153
37.37688	136569
37.38315	136752
37.38940	134648
37.39565	132721
37.40192	134988
37.40817	132870
37.41442	132189
37.42067	132876
37.42693	133562
37.43318	137392
37.43943	132181
37.44570	129888
37.45195	135467
37.45820	135073
37.46447	129892
37.47072	131043
37.47697	131184
37.48323	136597
37.48948	137540
