D:\MassHunter\GCMS\1\data\metastasis_lineages_3replicates_3runs_10302020\M_plate1_run1_10302020.D Fri Oct 30 17:11:14 2020
Start of data points
5.99358,196876
5.99983,207676
6.00608,213057
6.01235,196247
6.01860,192665
6.02485,206133
6.03112,197361
6.03737,187423
6.04362,172202
6.04988,164118
6.05613,172684
6.06238,168703
6.06863,166776
6.07490,168471
6.08115,212694
6.08740,360902
6.09367,677513
6.09992,926767
6.10617,800202
6.11243,502356
6.11868,286484
6.12493,224198
6.13120,238097
6.13745,247608
6.14370,271176
6.14997,395621
6.15622,668314
6.16247,907802
6.16873,847634
6.17498,554006
6.18123,306929
6.18750,219354
6.19375,192110
6.20000,168273
6.20627,149651
6.21252,143350
6.21877,138833
6.22503,146793
6.23128,139024
6.23753,142935
6.24380,128095
6.25005,128820
6.25630,137182
6.26257,144439
6.26882,145485
6.27507,137051
6.28132,132126
6.28758,130509
6.29383,137199
6.30008,143641
6.30635,178294
6.31260,218672
6.31885,236978
6.32512,216269
6.33137,202309
6.33762,182105
6.34388,156643
6.35013,136999
6.35638,137559
6.36265,138656
6.36890,150048
6.37515,183808
6.38142,268919
6.38767,365165
6.39392,365713
6.40018,305474
6.40643,299181
6.41268,343369
6.41895,463925
6.42520,668434
6.43145,786828
6.43772,650160
6.44397,480773
6.45022,854850
6.45648,3023165
6.46273,8926484
6.46898,1.747872E+07
6.47525,2.316617E+07
6.48150,1.993055E+07
6.48775,8389080
6.49400,1741551
6.50027,390969
6.50652,256528
6.51277,246236
6.51903,256839
6.52528,334256
6.53153,628594
6.53780,1350498
6.54405,2061396
6.55030,1986192
6.55657,1216382
6.56282,556877
6.56907,323697
6.57533,265774
6.58158,250241
6.58783,221159
6.59410,201783
6.60035,190935
6.60660,192766
6.61287,179441
6.61912,177295
6.62537,191706
6.63163,203548
6.63788,223274
6.64413,260071
6.65040,309482
6.65665,342236
6.66290,306252
6.66917,247868
6.67542,215967
6.68167,208874
6.68793,210159
6.69418,210144
6.70043,219840
6.70670,227439
6.71295,245666
6.71920,255132
6.72545,272127
6.73172,265887
6.73797,275295
6.74422,269704
6.75048,270329
6.75673,280109
6.76298,282020
6.76925,275503
6.77550,288343
6.78175,322289
6.78802,377425
6.79427,415780
6.80052,400016
6.80678,367687
6.81303,359762
6.81928,357989
6.82555,376775
6.83180,402258
6.83805,406612
6.84432,391985
6.85057,379810
6.85682,424717
6.86308,529739
6.86933,625492
6.87558,617222
6.88185,522470
6.88810,414928
6.89435,368779
6.90062,351188
6.90687,348988
6.91312,322905
6.91938,315252
6.92563,308888
6.93188,309672
6.93813,305515
6.94440,295593
6.95065,281243
6.95690,282238
6.96317,271618
6.96942,261594
6.97567,256475
6.98193,251870
6.98818,243663
6.99443,229150
7.00070,223397
7.00695,241415
7.01320,269280
7.01947,357801
7.02572,658054
7.03197,1205300
7.03823,1622487
7.04448,1436050
7.05073,853627
7.05700,404835
7.06325,220643
7.06950,169074
7.07577,150692
7.08202,135639
7.08827,123862
7.09453,121073
7.10078,119883
7.10703,117384
7.11330,115044
7.11955,110318
7.12580,119223
7.13207,113610
7.13832,109518
7.14457,100341
7.15082,98572
7.15708,102744
7.16333,108371
7.16958,116624
7.17585,112762
7.18210,102958
7.18835,95412
7.19462,96922
7.20087,91234
7.20712,91677
7.21338,93383
7.21963,97898
7.22588,112621
7.23215,125560
7.23840,164703
7.24465,239468
7.25092,363402
7.25717,458988
7.26342,447720
7.26968,341099
7.27593,226246
7.28218,155559
7.28845,135562
7.29470,131478
7.30095,126197
7.30722,109056
7.31347,101562
7.31972,100542
7.32598,93225
7.33223,95541
7.33848,92379
7.34475,92919
7.35100,88786
7.35725,89857
7.36352,90075
7.36977,98271
7.37602,114079
7.38227,124197
7.38853,123437
7.39478,113664
7.40103,115660
7.40730,148912
7.41355,204459
7.41980,266344
7.42607,294953
7.43232,256998
7.43857,194044
7.44483,155384
7.45108,161228
7.45733,197482
7.46360,220841
7.46985,210190
7.47610,184521
7.48237,161753
7.48862,146698
7.49487,127018
7.50113,121712
7.50738,104921
7.51363,97808
7.51990,94545
7.52615,93628
7.53240,96891
7.53867,144043
7.54492,439225
7.55117,1695053
7.55743,5109956
7.56368,1.101297E+07
7.56993,1.795362E+07
7.57620,2.221746E+07
7.58245,1.908196E+07
7.58870,9296335
7.59495,2619894
7.60122,829339
7.60747,576938
7.61372,545661
7.61998,527284
7.62623,511388
7.63248,419578
7.63875,300127
7.64500,211388
7.65125,163174
7.65752,157911
7.66377,181341
7.67002,238735
7.67628,281986
7.68253,264537
7.68878,198091
7.69505,149918
7.70130,147809
7.70755,193529
7.71382,267646
7.72007,299011
7.72632,276195
7.73258,230860
7.73883,182873
7.74508,155724
7.75135,128398
7.75760,116958
7.76385,101928
7.77012,104258
7.77637,109330
7.78262,120887
7.78888,125975
7.79513,122740
7.80138,117437
7.80765,117646
7.81390,137859
7.82015,188501
7.82640,236909
7.83267,233213
7.83892,199610
7.84517,177121
7.85143,199167
7.85768,241808
7.86393,246930
7.87020,221303
7.87645,191086
7.88270,188563
7.88897,180520
7.89522,176398
7.90147,186439
7.90773,201254
7.91398,209270
7.92023,200163
7.92650,176111
7.93275,159195
7.93900,154148
7.94527,174672
7.95152,205595
7.95777,216091
7.96403,204810
7.97028,199944
7.97653,219421
7.98280,296473
7.98905,486286
7.99530,649087
8.00157,698073
8.00782,784983
8.01407,1158385
8.02033,1654346
8.02658,1728344
8.03283,1311279
8.03908,794415
8.04535,613192
8.05160,682171
8.05785,735205
8.06412,598785
8.07037,389911
8.07662,233062
8.08288,172616
8.08913,166253
8.09538,189006
8.10165,214689
8.10790,259961
8.11415,268560
8.12042,227860
8.12667,185580
8.13292,161103
8.13918,146072
8.14543,135454
8.15168,128029
8.15795,128189
8.16420,126727
8.17045,118342
8.17672,117920
8.18297,112490
8.18922,116241
8.19548,101757
8.20173,101172
8.20798,94794
8.21425,97866
8.22050,107368
8.22675,115794
8.23302,124969
8.23927,123623
8.24552,127060
8.25178,119531
8.25803,121739
8.26428,122062
8.27053,127615
8.27680,148661
8.28305,174055
8.28930,199213
8.29557,185789
8.30182,148503
8.30807,111024
8.31433,98437
8.32058,88344
8.32683,95508
8.33310,94645
8.33935,99255
8.34560,95518
8.35187,91020
8.35812,95652
8.36437,94606
8.37063,94781
8.37688,89505
8.38313,89389
8.38940,91566
8.39565,91878
8.40190,92598
8.40817,92582
8.41442,99057
8.42067,101065
8.42693,103544
8.43318,104255
8.43943,96364
8.44570,95562
8.45195,97215
8.45820,89855
8.46447,89425
8.47072,88860
8.47697,92580
8.48322,96230
8.48948,95775
8.49573,103321
8.50198,100627
8.50825,106371
8.51450,101408
8.52075,97488
8.52702,86555
8.53327,85556
8.53952,80498
8.54578,90832
8.55203,106818
8.55828,163614
8.56455,269883
8.57080,388888
8.57705,407535
8.58332,362656
8.58957,395496
8.59582,521598
8.60208,709218
8.60833,1390608
8.61458,3549737
8.62085,7556289
8.62710,1.047608E+07
8.63335,9740813
8.63962,5454631
8.64587,1939856
8.65212,509310
8.65838,219433
8.66463,173880
8.67088,174954
8.67715,174225
8.68340,145081
8.68965,128152
8.69592,113941
8.70217,136659
8.70842,161312
8.71467,179970
8.72093,179007
8.72718,158287
8.73343,132468
8.73970,135331
8.74595,147372
8.75220,149148
8.75847,125671
8.76472,101247
8.77097,90154
8.77723,90736
8.78348,93633
8.78973,94761
8.79600,85393
8.80225,80819
8.80850,76810
8.81477,83845
8.82102,104248
8.82727,203947
8.83353,549089
8.83978,1540408
8.84603,3613787
8.85230,6897585
8.85855,9465375
8.86480,1.011858E+07
8.87107,8307466
8.87732,4989040
8.88357,1596428
8.88983,402279
8.89608,217877
8.90233,179459
8.90860,152627
8.91485,131440
8.92110,116592
8.92735,110124
8.93362,105205
8.93987,105710
8.94612,111760
8.95238,129745
8.95863,152706
8.96488,183462
8.97115,219203
8.97740,243233
8.98365,262437
8.98992,315125
8.99617,401598
9.00242,566789
9.00868,692063
9.01493,705410
9.02118,544528
9.02745,336694
9.03370,208734
9.03995,160566
9.04622,136989
9.05247,126207
9.05872,124115
9.06498,127416
9.07123,121475
9.07748,110856
9.08375,116474
9.09000,123238
9.09625,129456
9.10252,134842
9.10877,127297
9.11502,115104
9.12128,98006
9.12753,89871
9.13378,88955
9.14003,86760
9.14630,104917
9.15255,128871
9.15880,178892
9.16507,229465
9.17132,236897
9.17757,241233
9.18383,275825
9.19008,375599
9.19633,434675
9.20260,376894
9.20885,257891
9.21510,156039
9.22137,112001
9.22762,101128
9.23387,110939
9.24013,149012
9.24638,196195
9.25263,207522
9.25890,181870
9.26515,138113
9.27140,105321
9.27767,87996
9.28392,95905
9.29017,109441
9.29643,136453
9.30268,183868
9.30893,234249
9.31520,268493
9.32145,293055
9.32770,296802
9.33397,317899
9.34022,461164
9.34647,776379
9.35273,1042837
9.35898,973193
9.36523,624798
9.37148,375918
9.37775,545717
9.38400,1764194
9.39025,4846977
9.39652,8847123
9.40277,1.158084E+07
9.40902,9448698
9.41528,4649593
9.42153,1507250
9.42778,616500
9.43405,1202409
9.44030,4136162
9.44655,1.118328E+07
9.45282,2.139145E+07
9.45907,3.071035E+07
9.46532,3.574107E+07
9.47158,3.15403E+07
9.47783,1.557734E+07
9.48408,3533866
9.49035,751967
9.49660,308268
9.50285,181941
9.50912,140489
9.51537,128168
9.52162,125845
9.52788,123659
9.53413,125852
9.54038,126233
9.54665,125643
9.55290,120093
9.55915,121439
9.56542,136124
9.57167,148689
9.57792,158778
9.58417,152390
9.59043,137590
9.59668,138100
9.60293,151233
9.60920,191761
9.61545,234339
9.62170,230106
9.62797,182402
9.63422,139963
9.64047,114322
9.64673,103753
9.65298,108357
9.65923,107871
9.66550,97929
9.67175,115040
9.67800,255572
9.68427,961598
9.69052,3130392
9.69677,7158682
9.70303,1.0584E+07
9.70928,1.056387E+07
9.71553,6585600
9.72180,2535768
9.72805,779758
9.73430,414561
9.74057,421894
9.74682,386600
9.75307,285036
9.75933,185671
9.76558,140675
9.77183,119567
9.77810,114379
9.78435,113340
9.79060,105197
9.79685,97374
9.80312,93201
9.80937,92327
9.81562,93766
9.82188,91735
9.82813,99385
9.83438,109229
9.84065,127081
9.84690,153249
9.85315,246554
9.85942,660977
9.86567,1918830
9.87192,4097173
9.87818,6182080
9.88443,6053317
9.89068,3702854
9.89695,1514401
9.90320,802639
9.90945,985482
9.91572,1185467
9.92197,949340
9.92822,524648
9.93448,250094
9.94073,158440
9.94698,135332
9.95325,150362
9.95950,215927
9.96575,385947
9.97202,623438
9.97827,813776
9.98452,833945
9.99078,715036
9.99703,563610
10.00328,414345
10.00955,295202
10.01580,215246
10.02205,177634
10.02830,162423
10.03457,140053
10.04082,127756
10.04707,124460
10.05333,128023
10.05958,115753
10.06583,110653
10.07210,104951
10.07835,102423
10.08460,106114
10.09087,121043
10.09712,142288
10.10337,151160
10.10963,147906
10.11588,132479
10.12213,119677
10.12840,106475
10.13465,96581
10.14090,90174
10.14717,92717
10.15342,89834
10.15967,94959
10.16593,98739
10.17218,96558
10.17843,104964
10.18470,107552
10.19095,115185
10.19720,109918
10.20347,105029
10.20972,98549
10.21597,104034
10.22223,133379
10.22848,196851
10.23473,275466
10.24098,336210
10.24725,331297
10.25350,292154
10.25975,227416
10.26602,197257
10.27227,177436
10.27852,147438
10.28478,122766
10.29103,126186
10.29728,139200
10.30355,145731
10.30980,135505
10.31605,117828
10.32232,113214
10.32857,107948
10.33482,104079
10.34108,108530
10.34733,106716
10.35358,98647
10.35985,102445
10.36610,105101
10.37235,106958
10.37862,104950
10.38487,94305
10.39112,88900
10.39738,86520
10.40363,79583
10.40988,71907
10.41615,77017
10.42240,86350
10.42865,95885
10.43492,104040
10.44117,105476
10.44742,108627
10.45368,114368
10.45993,119838
10.46618,123369
10.47243,120068
10.47870,132540
10.48495,190349
10.49120,249982
10.49747,264618
10.50372,216468
10.50997,159827
10.51623,123530
10.52248,102106
10.52873,109586
10.53500,144294
10.54125,173754
10.54750,186638
10.55377,161984
10.56002,142505
10.56627,136046
10.57253,138036
10.57878,156851
10.58503,165726
10.59130,166429
10.59755,154605
10.60380,212927
10.61007,577090
10.61632,1783394
10.62257,4237915
10.62883,6762504
10.63508,7445878
10.64133,4957757
10.64760,2111603
10.65385,664144
10.66010,232178
10.66637,140970
10.67262,131143
10.67887,138827
10.68512,146742
10.69138,138985
10.69763,121223
10.70388,107747
10.71015,99891
10.71640,99199
10.72265,101588
10.72892,113210
10.73517,126534
10.74142,134613
10.74768,130362
10.75393,125129
10.76018,118906
10.76645,118489
10.77270,133711
10.77895,144773
10.78522,154821
10.79147,154579
10.79772,146079
10.80398,131500
10.81023,122914
10.81648,132850
10.82275,153600
10.82900,151540
10.83525,128547
10.84152,110806
10.84777,102168
10.85402,106254
10.86028,115794
10.86653,121103
10.87278,128870
10.87905,127292
10.88530,126234
10.89155,125177
10.89782,132518
10.90407,146138
10.91032,158662
10.91657,164554
10.92283,145747
10.92908,135833
10.93533,130835
10.94160,122271
10.94785,108029
10.95410,98331
10.96037,101597
10.96662,188791
10.97287,599240
10.97913,2051912
10.98538,5335477
10.99163,1.017139E+07
10.99790,1.374694E+07
11.00415,1.276082E+07
11.01040,7829338
11.01667,2835717
11.02292,730121
11.02917,250929
11.03543,181793
11.04168,194495
11.04793,208417
11.05420,221234
11.06045,237389
11.06670,256975
11.07297,231272
11.07922,174727
11.08547,129475
11.09173,106659
11.09798,105838
11.10423,112546
11.11050,120018
11.11675,121384
11.12300,130028
11.12925,134624
11.13552,139756
11.14177,145220
11.14802,147159
11.15428,175315
11.16053,259245
11.16678,391351
11.17305,514376
11.17930,503109
11.18555,348250
11.19182,210532
11.19807,140962
11.20432,131964
11.21058,169653
11.21683,233940
11.22308,292239
11.22935,279987
11.23560,240819
11.24185,183248
11.24812,168573
11.25437,180007
11.26062,192401
11.26688,185985
11.27313,171338
11.27938,174795
11.28565,192341
11.29190,196028
11.29815,177755
11.30442,142093
11.31067,126277
11.31692,140227
11.32318,208467
11.32943,327710
11.33568,435630
11.34195,406710
11.34820,286255
11.35445,169285
11.36070,113171
11.36697,95044
11.37322,93754
11.37947,94395
11.38573,87994
11.39198,84465
11.39823,88343
11.40450,98647
11.41075,111815
11.41700,119232
11.42327,112112
11.42952,107092
11.43577,97148
11.44203,103867
11.44828,115831
11.45453,128449
11.46080,130997
11.46705,118118
11.47330,102444
11.47957,99564
11.48582,102677
11.49207,101047
11.49833,99839
11.50458,102397
11.51083,104674
11.51710,107715
11.52335,104030
11.52960,100085
11.53587,97965
11.54212,98520
11.54837,102257
11.55463,106213
11.56088,99556
11.56713,90386
11.57338,92141
11.57965,94788
11.58590,94480
11.59215,102723
11.59842,104258
11.60467,105247
11.61092,101212
11.61718,94639
11.62343,92732
11.62968,90981
11.63595,92424
11.64220,95684
11.64845,105349
11.65472,120857
11.66097,137167
11.66722,147068
11.67348,139624
11.67973,130223
11.68598,115579
11.69225,108211
11.69850,109346
11.70475,121699
11.71102,142806
11.71727,175197
11.72352,188840
11.72978,183264
11.73603,163802
11.74228,156954
11.74855,148636
11.75480,129962
11.76105,113843
11.76732,115612
11.77357,121865
11.77982,130266
11.78607,141960
11.79233,152694
11.79858,155013
11.80483,151303
11.81110,145565
11.81735,140667
11.82360,138941
11.82987,179873
11.83612,298509
11.84237,497181
11.84863,603742
11.85488,521941
11.86113,348995
11.86740,218106
11.87365,155287
11.87990,144828
11.88617,169597
11.89242,235887
11.89867,295708
11.90493,320821
11.91118,289251
11.91743,232846
11.92370,190047
11.92995,159734
11.93620,154240
11.94247,189884
11.94872,378770
11.95497,949265
11.96123,2185235
11.96748,3914594
11.97373,5029433
11.98000,4478485
11.98625,2474870
11.99250,929322
11.99877,339354
12.00502,188331
12.01127,166311
12.01752,166029
12.02378,181530
12.03003,198647
12.03628,224832
12.04255,282606
12.04880,384658
12.05505,540414
12.06132,696612
12.06757,728305
12.07382,620171
12.08008,429575
12.08633,322168
12.09258,286626
12.09885,282725
12.10510,281576
12.11135,262822
12.11762,218399
12.12387,185081
12.13012,161315
12.13638,156842
12.14263,148906
12.14888,146730
12.15515,142878
12.16140,141521
12.16765,143443
12.17392,148910
12.18017,147594
12.18642,143932
12.19268,150595
12.19893,169049
12.20518,212994
12.21145,300727
12.21770,387039
12.22395,433976
12.23020,403076
12.23647,330194
12.24272,286304
12.24897,307449
12.25523,446937
12.26148,682345
12.26773,961364
12.27400,1026156
12.28025,884748
12.28650,618240
12.29277,397886
12.29902,268622
12.30527,190803
12.31153,134013
12.31778,109630
12.32403,101492
12.33030,99109
12.33655,102741
12.34280,114954
12.34907,137862
12.35532,156215
12.36157,160463
12.36783,147040
12.37408,132102
12.38033,143098
12.38660,188995
12.39285,253135
12.39910,287128
12.40537,258645
12.41162,195675
12.41787,156916
12.42413,149158
12.43038,158856
12.43663,194978
12.44288,234182
12.44915,235409
12.45540,203943
12.46165,166357
12.46792,149096
12.47417,175831
12.48042,296075
12.48668,630141
12.49293,1238662
12.49918,1948770
12.50545,2198179
12.51170,1775512
12.51795,968504
12.52422,402397
12.53047,194748
12.53672,162585
12.54298,219217
12.54923,271716
12.55548,294319
12.56175,246233
12.56800,196755
12.57425,221560
12.58052,393245
12.58677,786745
12.59302,1261241
12.59928,1485963
12.60553,1311128
12.61178,1019139
12.61805,1101396
12.62430,1551771
12.63055,2149416
12.63682,2752958
12.64307,3749148
12.64932,5448221
12.65558,8114546
12.66183,1.207984E+07
12.66808,1.625526E+07
12.67433,2.03488E+07
12.68060,2.251266E+07
12.68685,1.939433E+07
12.69310,1.004664E+07
12.69937,2705037
12.70562,642035
12.71187,288580
12.71813,240874
12.72438,243288
12.73063,270919
12.73690,332245
12.74315,392542
12.74940,419310
12.75567,372467
12.76192,326763
12.76817,287586
12.77443,258856
12.78068,232138
12.78693,208492
12.79320,195553
12.79945,179843
12.80570,174321
12.81197,167661
12.81822,163486
12.82447,158508
12.83073,147691
12.83698,145437
12.84323,141755
12.84950,145933
12.85575,145867
12.86200,145390
12.86827,141988
12.87452,143795
12.88077,164256
12.88702,274053
12.89328,491406
12.89953,798987
12.90578,936757
12.91205,793243
12.91830,512725
12.92455,279102
12.93082,183952
12.93707,149407
12.94332,128647
12.94958,114182
12.95583,109445
12.96208,100529
12.96835,96313
12.97460,95387
12.98085,94945
12.98712,100622
12.99337,109391
12.99962,110197
13.00588,121668
13.01213,133755
13.01838,145878
13.02465,177926
13.03090,238107
13.03715,349413
13.04342,435450
13.04967,411796
13.05592,310290
13.06218,197208
13.06843,135290
13.07468,133452
13.08095,185766
13.08720,273949
13.09345,366140
13.09972,374217
13.10597,348817
13.11222,322395
13.11847,299589
13.12473,258017
13.13098,215782
13.13723,192010
13.14350,192628
13.14975,190478
13.15600,185018
13.16227,162824
13.16852,152606
13.17477,136766
13.18103,122987
13.18728,112827
13.19353,101126
13.19980,101720
13.20605,101685
13.21230,101586
13.21857,106770
13.22482,114717
13.23107,126968
13.23733,145669
13.24358,166335
13.24983,166421
13.25610,168229
13.26235,183725
13.26860,199935
13.27487,197749
13.28112,173066
13.28737,146412
13.29363,130827
13.29988,129727
13.30613,135069
13.31240,139316
13.31865,128264
13.32490,119258
13.33115,108771
13.33742,101041
13.34367,104792
13.34992,119411
13.35618,133852
13.36243,145073
13.36868,131482
13.37495,110073
13.38120,101912
13.38745,93051
13.39372,89757
13.39997,86809
13.40622,87041
13.41248,91420
13.41873,101088
13.42498,107661
13.43125,125230
13.43750,150974
13.44375,176269
13.45002,185820
13.45627,176915
13.46252,150064
13.46878,124165
13.47503,112941
13.48128,109616
13.48755,119680
13.49380,123916
13.50005,126882
13.50632,119879
13.51257,115741
13.51882,109281
13.52508,114467
13.53133,120478
13.53758,127555
13.54385,156570
13.55010,226074
13.55635,358419
13.56260,495701
13.56887,540824
13.57512,430055
13.58137,286462
13.58763,215995
13.59388,221184
13.60013,267765
13.60640,336484
13.61265,375598
13.61890,385745
13.62517,347705
13.63142,285791
13.63767,223930
13.64393,174192
13.65018,140496
13.65643,118694
13.66270,108217
13.66895,106105
13.67520,110235
13.68147,116762
13.68772,130414
13.69397,136004
13.70023,138369
13.70648,130641
13.71273,119265
13.71900,107583
13.72525,109649
13.73150,115298
13.73777,113128
13.74402,117354
13.75027,148619
13.75653,274432
13.76278,647489
13.76903,1219703
13.77528,1540657
13.78155,1297270
13.78780,747464
13.79405,337242
13.80032,183500
13.80657,155295
13.81282,184903
13.81908,310771
13.82533,593330
13.83158,1034574
13.83785,1280104
13.84410,1152687
13.85035,717323
13.85662,423255
13.86287,302879
13.86912,233393
13.87538,176627
13.88163,156067
13.88788,204956
13.89415,402025
13.90040,905815
13.90665,2180489
13.91292,4377258
13.91917,6308800
13.92542,6285098
13.93168,4414097
13.93793,1951086
13.94418,625883
13.95045,213212
13.95670,133765
13.96295,118883
13.96922,111519
13.97547,107080
13.98172,110179
13.98798,119336
13.99423,131091
14.00048,138963
14.00673,157192
14.01300,191713
14.01925,216073
14.02550,210967
14.03177,173513
14.03802,139690
14.04427,124058
14.05053,116063
14.05678,122042
14.06303,137160
14.06930,160863
14.07555,194491
14.08180,203946
14.08807,187633
14.09432,145974
14.10057,123561
14.10683,109393
14.11308,107993
14.11933,108734
14.12560,116806
14.13185,124143
14.13810,119583
14.14437,110853
14.15062,103121
14.15687,101161
14.16313,104444
14.16938,107626
14.17563,103371
14.18190,96008
14.18815,95628
14.19440,97789
14.20067,103813
14.20692,105089
14.21317,107418
14.21942,107950
14.22568,117518
14.23193,131577
14.23818,142224
14.24445,130055
14.25070,109359
14.25695,97711
14.26322,99493
14.26947,104594
14.27572,117444
14.28198,121507
14.28823,128725
14.29448,145620
14.30075,164651
14.30700,180761
14.31325,188636
14.31952,217888
14.32577,312126
14.33202,431457
14.33828,465330
14.34453,387921
14.35078,267012
14.35705,178334
14.36330,139616
14.36955,135460
14.37582,131544
14.38207,136384
14.38832,144253
14.39458,161471
14.40083,188609
14.40708,222876
14.41335,243104
14.41960,230736
14.42585,204401
14.43210,193836
14.43837,171829
14.44462,181277
14.45087,208666
14.45713,298909
14.46338,462877
14.46963,640321
14.47590,855620
14.48215,1102653
14.48840,1180276
14.49467,1062080
14.50092,695008
14.50717,402681
14.51343,236368
14.51968,165437
14.52593,148071
14.53220,148277
14.53845,147534
14.54470,145156
14.55097,139302
14.55722,149878
14.56347,149993
14.56973,164300
14.57598,186412
14.58223,198147
14.58850,180503
14.59475,157418
14.60100,142618
14.60727,145935
14.61352,159027
14.61977,165080
14.62603,156819
14.63228,147916
14.63853,146162
14.64480,181494
14.65105,243077
14.65730,295283
14.66355,301328
14.66982,261867
14.67607,222991
14.68232,187787
14.68858,186994
14.69483,179051
14.70108,197315
14.70735,218769
14.71360,243801
14.71985,275087
14.72612,394020
14.73237,634673
14.73862,1041098
14.74488,1514689
14.75113,1595772
14.75738,1310096
14.76365,883183
14.76990,597909
14.77615,383576
14.78242,233599
14.78867,175370
14.79492,250563
14.80118,588574
14.80743,1583255
14.81368,3373872
14.81995,4773333
14.82620,4801420
14.83245,3019740
14.83872,1157513
14.84497,358101
14.85122,168980
14.85748,134557
14.86373,127104
14.86998,128953
14.87623,130717
14.88250,132001
14.88875,134981
14.89500,127246
14.90127,119592
14.90752,119367
14.91377,115801
14.92003,128748
14.92628,156560
14.93253,191520
14.93880,227469
14.94505,227483
14.95130,207724
14.95757,181391
14.96382,177955
14.97007,173787
14.97633,183165
14.98258,192030
14.98883,199658
14.99510,205425
15.00135,210474
15.00760,206065
15.01387,203100
15.02012,193968
15.02637,187765
15.03263,191320
15.03888,191916
15.04513,201721
15.05140,214233
15.05765,235458
15.06390,244892
15.07017,250531
15.07642,251592
15.08267,249019
15.08892,258974
15.09518,283609
15.10143,330997
15.10768,367815
15.11395,383098
15.12020,424085
15.12645,499753
15.13272,608048
15.13897,737309
15.14522,876470
15.15148,970036
15.15773,1085536
15.16398,1545261
15.17025,2906702
15.17650,5283474
15.18275,7560794
15.18902,7513947
15.19527,4542752
15.20152,2021978
15.20778,724812
15.21403,305143
15.22028,197233
15.22655,165661
15.23280,150235
15.23905,141210
15.24532,139816
15.25157,153950
15.25782,162513
15.26408,157292
15.27033,155999
15.27658,148936
15.28285,143680
15.28910,143433
15.29535,143949
15.30162,148841
15.30787,152826
15.31412,153722
15.32037,160678
15.32663,179715
15.33288,197912
15.33913,205702
15.34540,192780
15.35165,172556
15.35790,178065
15.36417,211365
15.37042,256214
15.37667,267660
15.38293,240279
15.38918,193600
15.39543,158996
15.40170,143069
15.40795,137676
15.41420,135373
15.42047,134374
15.42672,139415
15.43297,155532
15.43923,176196
15.44548,206477
15.45173,282594
15.45800,399678
15.46425,462714
15.47050,414462
15.47677,345842
15.48302,254599
15.48927,189470
15.49553,149753
15.50178,147632
15.50803,174295
15.51430,217552
15.52055,281006
15.52680,468064
15.53305,870442
15.53932,1639164
15.54557,3144348
15.55182,5650055
15.55808,8952761
15.56433,1.165917E+07
15.57058,1.064483E+07
15.57685,5708888
15.58310,1780759
15.58935,569288
15.59562,319090
15.60187,276951
15.60812,261054
15.61438,234821
15.62063,211210
15.62688,193789
15.63315,202021
15.63940,221158
15.64565,223517
15.65192,216722
15.65817,199266
15.66442,192705
15.67068,211261
15.67693,235223
15.68318,265059
15.68945,280252
15.69570,270517
15.70195,237337
15.70822,202247
15.71447,180988
15.72072,159524
15.72698,144006
15.73323,134685
15.73948,134862
15.74575,140899
15.75200,150802
15.75825,146773
15.76450,138984
15.77077,125772
15.77702,114316
15.78327,114115
15.78953,127399
15.79578,146400
15.80203,164229
15.80830,168980
15.81455,156293
15.82080,134291
15.82707,117364
15.83332,129007
15.83957,161485
15.84583,238845
15.85208,333999
15.85833,379408
15.86460,316310
15.87085,231016
15.87710,177791
15.88337,155611
15.88962,145954
15.89587,137350
15.90213,131452
15.90838,123907
15.91463,119486
15.92090,114509
15.92715,116342
15.93340,122502
15.93967,118781
15.94592,120373
15.95217,119416
15.95843,120583
15.96468,128709
15.97093,145831
15.97718,149619
15.98345,144296
15.98970,119404
15.99595,102899
16.00222,91186
16.00847,97437
16.01472,113376
16.02098,147982
16.02723,182178
16.03348,243433
16.03975,342620
16.04600,506094
16.05225,699450
16.05852,853187
16.06477,850509
16.07102,685002
16.07728,558516
16.08353,656314
16.08978,870943
16.09605,968275
16.10230,861505
16.10855,733776
16.11482,723502
16.12107,868481
16.12732,1061028
16.13358,1062253
16.13983,883992
16.14608,603727
16.15235,393841
16.15860,262697
16.16485,226584
16.17112,229874
16.17737,229575
16.18362,224745
16.18988,223290
16.19613,259586
16.20238,332735
16.20863,352125
16.21490,290841
16.22115,200134
16.22740,135520
16.23367,111326
16.23992,104344
16.24617,106751
16.25243,118027
16.25868,132150
16.26493,152149
16.27120,159987
16.27745,152737
16.28370,132190
16.28997,112512
16.29622,103342
16.30247,97749
16.30873,97749
16.31498,97383
16.32123,107889
16.32750,114260
16.33375,120780
16.34000,122637
16.34627,128351
16.35252,127749
16.35877,128344
16.36503,127451
16.37128,128661
16.37753,128808
16.38380,124388
16.39005,122911
16.39630,119886
16.40257,121403
16.40882,122653
16.41507,129650
16.42132,132976
16.42758,145057
16.43383,182967
16.44008,279757
16.44635,496481
16.45260,792512
16.45885,994755
16.46512,919966
16.47137,736934
16.47762,610683
16.48388,494803
16.49013,391969
16.49638,306450
16.50265,267952
16.50890,269691
16.51515,307571
16.52142,415787
16.52767,565707
16.53392,660916
16.54018,646914
16.54643,586888
16.55268,530757
16.55895,491195
16.56520,451519
16.57145,407132
16.57772,352469
16.58397,331421
16.59022,325324
16.59648,327272
16.60273,315052
16.60898,301352
16.61525,302205
16.62150,305638
16.62775,306890
16.63402,312459
16.64027,325992
16.64652,370892
16.65277,443802
16.65903,515077
16.66528,503480
16.67153,428907
16.67780,367207
16.68405,329306
16.69030,318171
16.69657,299276
16.70282,277389
16.70907,250043
16.71533,224627
16.72158,213719
16.72783,213241
16.73410,222130
16.74035,242529
16.74660,277231
16.75287,323485
16.75912,465884
16.76537,819754
16.77163,1761233
16.77788,3935932
16.78413,7753579
16.79040,1.090851E+07
16.79665,1.244479E+07
16.80290,1.028584E+07
16.80917,8714242
16.81542,7870848
16.82167,8268963
16.82793,8851478
16.83418,9444790
16.84043,1.126942E+07
16.84670,1.303734E+07
16.85295,1.432556E+07
16.85920,1.302419E+07
16.86545,1.100625E+07
16.87172,8178366
16.87797,6630784
16.88422,6602280
16.89048,7803161
16.89673,9563752
16.90298,1.058592E+07
16.90925,1.033236E+07
16.91550,8837456
16.92175,6719332
16.92802,4652735
16.93427,3886239
16.94052,3857790
16.94678,3839831
16.95303,3607406
16.95928,3281981
16.96555,3019246
16.97180,2659594
16.97805,2241551
16.98432,1895589
16.99057,1631146
16.99682,1448536
17.00308,1356223
17.00933,1397122
17.01558,1835845
17.02185,3204244
17.02810,6234515
17.03435,1.067714E+07
17.04062,1.60377E+07
17.04687,2.174852E+07
17.05312,2.949671E+07
17.05938,3.751756E+07
17.06563,4.459433E+07
17.07188,4.739221E+07
17.07813,4.780903E+07
17.08440,4.600992E+07
17.09065,4.342092E+07
17.09690,3.976071E+07
17.10317,3.820175E+07
17.10942,3.753327E+07
17.11567,3.626796E+07
17.12193,3.831602E+07
17.12818,3.554852E+07
17.13443,7332140
17.14070,5562315
17.14695,5077983
17.15320,5039577
17.15947,6901360
17.16572,1.269831E+07
17.17197,2.232248E+07
17.17823,3.305154E+07
17.18448,3.98946E+07
17.19073,3.967364E+07
17.19700,2.904992E+07
17.20325,1.024798E+07
17.20950,3091832
17.21577,2226028
17.22202,2492937
17.22827,3102469
17.23453,4111658
17.24078,6258352
17.24703,1.177185E+07
17.25330,2.159899E+07
17.25955,3.357322E+07
17.26580,4.420976E+07
17.27207,4.723634E+07
17.27832,4.649697E+07
17.28457,3.419408E+07
17.29083,1.274613E+07
17.29708,5961307
17.30333,7339477
17.30958,9733110
17.31585,1.008568E+07
17.32210,7199964
17.32835,3686494
17.33462,1666713
17.34087,984749
17.34712,789345
17.35338,729964
17.35963,706789
17.36588,669477
17.37215,665804
17.37840,663171
17.38465,685256
17.39092,710973
17.39717,718757
17.40342,751996
17.40968,854944
17.41593,1062740
17.42218,1320203
17.42845,1438783
17.43470,1405465
17.44095,1201789
17.44722,1236329
17.45347,1634062
17.45972,2342860
17.46598,3065038
17.47223,2991533
17.47848,2310736
17.48475,1386581
17.49100,908223
17.49725,757899
17.50352,701470
17.50977,667119
17.51602,708879
17.52227,836998
17.52853,960001
17.53478,876548
17.54103,691566
17.54730,533128
17.55355,469133
17.55980,525525
17.56607,794091
17.57232,1651188
17.57857,3714876
17.58483,7330359
17.59108,1.054968E+07
17.59733,9796263
17.60360,6354446
17.60985,2766374
17.61610,1127380
17.62237,705509
17.62862,670934
17.63487,691154
17.64113,635426
17.64738,529811
17.65363,448402
17.65990,394784
17.66615,358025
17.67240,346318
17.67867,347212
17.68492,346438
17.69117,355894
17.69743,370484
17.70368,412826
17.70993,472109
17.71620,521707
17.72245,520393
17.72870,446475
17.73495,368481
17.74122,332369
17.74747,349029
17.75372,375004
17.75998,400152
17.76623,398458
17.77248,430289
17.77875,502367
17.78500,661299
17.79125,995063
17.79752,1773476
17.80377,2996919
17.81002,3981310
17.81628,4364770
17.82253,3610709
17.82878,2194125
17.83505,1277590
17.84130,862912
17.84755,696482
17.85382,623095
17.86007,651674
17.86632,1097366
17.87258,2557670
17.87883,5495216
17.88508,8042387
17.89135,8528777
17.89760,6577303
17.90385,3399898
17.91012,1395859
17.91637,642167
17.92262,443746
17.92888,401592
17.93513,363877
17.94138,341180
17.94765,321471
17.95390,313366
17.96015,311415
17.96640,310960
17.97267,305243
17.97892,299264
17.98517,293558
17.99143,298205
17.99768,319664
18.00393,373618
18.01020,462032
18.01645,543411
18.02270,565137
18.02897,485373
18.03522,398186
18.04147,339981
18.04773,311307
18.05398,297293
18.06023,279971
18.06650,258506
18.07275,240732
18.07900,229870
18.08527,242887
18.09152,263340
18.09777,316416
18.10403,422076
18.11028,554655
18.11653,677334
18.12280,690917
18.12905,703709
18.13530,963074
18.14157,1918980
18.14782,3477112
18.15407,4614952
18.16033,4351656
18.16658,2697212
18.17283,1193826
18.17908,516796
18.18535,307638
18.19160,252263
18.19785,233710
18.20412,225570
18.21037,225750
18.21662,240669
18.22288,268872
18.22913,284211
18.23538,268988
18.24165,251869
18.24790,236273
18.25415,228442
18.26042,222782
18.26667,225063
18.27292,242135
18.27918,277431
18.28543,316162
18.29168,393029
18.29795,541668
18.30420,763103
18.31045,913513
18.31672,882105
18.32297,640262
18.32922,412118
18.33548,275399
18.34173,208217
18.34798,185468
18.35425,175606
18.36050,177555
18.36675,176343
18.37302,177502
18.37927,189856
18.38552,210898
18.39177,258872
18.39803,297903
18.40428,300392
18.41053,276913
18.41680,238319
18.42305,213479
18.42930,205452
18.43557,199485
18.44182,194478
18.44807,185060
18.45433,175203
18.46058,174703
18.46683,176860
18.47310,183075
18.47935,197064
18.48560,191350
18.49187,189867
18.49812,179219
18.50437,177475
18.51063,174259
18.51688,175203
18.52313,177405
18.52940,174737
18.53565,178412
18.54190,179023
18.54817,186258
18.55442,191301
18.56067,192530
18.56693,189836
18.57318,189338
18.57943,188081
18.58570,184383
18.59195,176456
18.59820,171894
18.60447,167026
18.61072,174144
18.61697,173975
18.62322,176123
18.62948,174010
18.63573,181282
18.64198,186630
18.64825,193395
18.65450,206172
18.66075,205962
18.66702,196945
18.67327,202301
18.67952,199517
18.68578,200269
18.69203,186489
18.69828,179325
18.70455,173715
18.71080,180389
18.71705,201211
18.72332,217483
18.72957,225503
18.73582,205787
18.74208,179768
18.74833,169030
18.75458,160332
18.76085,161042
18.76710,159893
18.77335,156377
18.77962,157846
18.78587,158669
18.79212,160108
18.79838,156987
18.80463,157195
18.81088,158615
18.81715,154453
18.82340,157339
18.82965,164100
18.83590,157760
18.84217,161364
18.84842,162521
18.85467,170332
18.86093,215069
18.86718,410953
18.87343,1021631
18.87970,2349363
18.88595,4051921
18.89220,5559735
18.89847,6144622
18.90472,6603203
18.91097,6298371
18.91723,4579434
18.92348,2505264
18.92973,1068655
18.93600,437969
18.94225,273773
18.94850,248799
18.95477,240869
18.96102,226562
18.96727,193471
18.97353,177326
18.97978,163634
18.98603,162996
18.99230,154908
18.99855,161339
19.00480,164421
19.01107,171815
19.01732,180554
19.02357,178335
19.02983,170989
19.03608,176611
19.04233,179609
19.04860,199640
19.05485,205494
19.06110,209911
19.06735,199561
19.07362,177089
19.07987,160915
19.08612,156020
19.09238,152969
19.09863,149128
19.10488,149487
19.11115,151996
19.11740,162662
19.12365,172740
19.12992,189141
19.13617,199988
19.14242,212131
19.14868,208762
19.15493,204506
19.16118,189654
19.16745,175118
19.17370,167282
19.17995,160157
19.18622,155972
19.19247,155789
19.19872,156891
19.20498,154402
19.21123,150722
19.21748,143764
19.22375,141932
19.23000,138291
19.23625,139740
19.24252,138208
19.24877,133453
19.25502,139693
19.26128,135242
19.26753,138006
19.27378,137757
19.28003,132440
19.28630,137072
19.29255,144826
19.29880,142597
19.30507,142995
19.31132,139271
19.31757,130712
19.32383,122637
19.33008,127134
19.33633,128235
19.34260,132745
19.34885,142413
19.35510,153857
19.36137,159575
19.36762,163299
19.37387,162861
19.38013,154148
19.38638,152599
19.39263,152741
19.39890,157777
19.40515,162453
19.41140,170223
19.41767,165796
19.42392,159410
19.43017,145706
19.43643,136108
19.44268,131847
19.44893,135237
19.45520,132609
19.46145,134917
19.46770,129120
19.47397,125823
19.48022,126484
19.48647,128175
19.49273,126251
19.49898,126879
19.50523,138089
19.51148,140329
19.51775,146805
19.52400,159000
19.53025,164568
19.53652,162892
19.54277,155184
19.54902,159807
19.55528,169769
19.56153,172306
19.56778,169798
19.57405,158106
19.58030,147063
19.58655,139534
19.59282,137749
19.59907,137613
19.60532,137088
19.61158,131961
19.61783,130057
19.62408,134750
19.63035,154181
19.63660,191594
19.64285,234964
19.64912,254130
19.65537,232216
19.66162,187295
19.66788,168316
19.67413,167886
19.68038,198191
19.68665,226788
19.69290,241600
19.69915,240910
19.70542,223689
19.71167,214952
19.71792,216904
19.72417,212878
19.73043,191587
19.73668,175861
19.74293,164991
19.74920,172305
19.75545,171003
19.76170,162055
19.76797,164228
19.77422,176595
19.78047,186892
19.78673,183303
19.79298,174690
19.79923,158137
19.80550,143867
19.81175,137349
19.81800,134596
19.82427,133603
19.83052,128146
19.83677,127568
19.84303,125259
19.84928,128317
19.85553,133403
19.86180,151153
19.86805,170937
19.87430,195991
19.88057,200196
19.88682,187623
19.89307,166224
19.89933,155943
19.90558,177464
19.91183,300213
19.91810,771638
19.92435,2163097
19.93060,4134711
19.93687,5491674
19.94312,5169828
19.94937,3208440
19.95562,1394676
19.96188,522199
19.96813,263254
19.97438,202799
19.98065,191844
19.98690,201165
19.99315,195762
19.99942,182127
20.00567,170507
20.01192,165765
20.01818,159067
20.02443,149701
20.03068,147311
20.03695,136881
20.04320,136217
20.04945,136131
20.05572,138159
20.06197,139285
20.06822,146021
20.07448,136233
20.08073,133176
20.08698,135262
20.09325,143329
20.09950,161575
20.10575,171221
20.11202,175272
20.11827,162227
20.12452,150650
20.13078,137353
20.13703,132859
20.14328,130262
20.14955,131654
20.15580,137389
20.16205,140026
20.16830,142335
20.17457,141266
20.18082,142399
20.18707,142311
20.19333,136679
20.19958,142559
20.20583,142985
20.21210,143341
20.21835,149045
20.22460,152675
20.23087,162103
20.23712,167620
20.24337,177134
20.24963,183180
20.25588,171371
20.26213,167675
20.26840,155066
20.27465,156094
20.28090,175183
20.28717,198974
20.29342,257931
20.29967,421277
20.30593,723438
20.31218,1111281
20.31843,1277167
20.32470,1047690
20.33095,688262
20.33720,398341
20.34347,252287
20.34972,210880
20.35597,204313
20.36223,193866
20.36848,182251
20.37473,164513
20.38098,157658
20.38725,147292
20.39350,148910
20.39975,147783
20.40602,142792
20.41227,144020
20.41852,151259
20.42478,181290
20.43103,275893
20.43728,553649
20.44355,1180921
20.44980,1884279
20.45605,2181775
20.46232,1802587
20.46857,1157129
20.47482,644165
20.48108,472924
20.48733,561669
20.49358,706400
20.49985,749788
20.50610,655818
20.51235,468776
20.51862,301041
20.52487,224763
20.53112,196187
20.53738,188687
20.54363,189528
20.54988,201242
20.55615,232619
20.56240,269440
20.56865,294715
20.57492,297951
20.58117,347960
20.58742,584571
20.59368,1167050
20.59993,1877224
20.60618,2077301
20.61243,1618800
20.61870,906059
20.62495,455432
20.63120,274735
20.63747,208878
20.64372,191468
20.64997,185024
20.65623,176856
20.66248,166627
20.66873,168458
20.67500,173835
20.68125,170009
20.68750,168977
20.69377,161941
20.70002,155683
20.70627,163888
20.71253,203841
20.71878,335759
20.72503,637525
20.73130,1005225
20.73755,1223147
20.74380,1037423
20.75007,721251
20.75632,475878
20.76257,421916
20.76883,557335
20.77508,852478
20.78133,1065861
20.78760,1030103
20.79385,746920
20.80010,469793
20.80637,290122
20.81262,213623
20.81887,189309
20.82512,174388
20.83138,166522
20.83763,160895
20.84388,164541
20.85015,155798
20.85640,156178
20.86265,155343
20.86892,156403
20.87517,156184
20.88142,151683
20.88768,146893
20.89393,145921
20.90018,139541
20.90645,143735
20.91270,141038
20.91895,139655
20.92522,144920
20.93147,176037
20.93772,287584
20.94398,556510
20.95023,1094030
20.95648,1591713
20.96275,1638181
20.96900,1305492
20.97525,829248
20.98152,482890
20.98777,314636
20.99402,247904
21.00028,208232
21.00653,186436
21.01278,178031
21.01905,178508
21.02530,177939
21.03155,187008
21.03780,195718
21.04407,215978
21.05032,235928
21.05657,235310
21.06283,219713
21.06908,191306
21.07533,184136
21.08160,201693
21.08785,228815
21.09410,241417
21.10037,223500
21.10662,196309
21.11287,174142
21.11913,162020
21.12538,166482
21.13163,169304
21.13790,167782
21.14415,161694
21.15040,150310
21.15667,148031
21.16292,144310
21.16917,138465
21.17543,131490
21.18168,130299
21.18793,129914
21.19420,134623
21.20045,144589
21.20670,151217
21.21297,155233
21.21922,156523
21.22547,161235
21.23173,154793
21.23798,156428
21.24423,158649
21.25050,162187
21.25675,172362
21.26300,163390
21.26925,159394
21.27552,161217
21.28177,189059
21.28802,233424
21.29428,269818
21.30053,276732
21.30678,249850
21.31305,213517
21.31930,201892
21.32555,232034
21.33182,316782
21.33807,391766
21.34432,400557
21.35058,328808
21.35683,250635
21.36308,207905
21.36935,210129
21.37560,249824
21.38185,290980
21.38812,293368
21.39437,249761
21.40062,197250
21.40688,161026
21.41313,147128
21.41938,143792
21.42565,142439
21.43190,149872
21.43815,158822
21.44442,160826
21.45067,162297
21.45692,177939
21.46318,221406
21.46943,290993
21.47568,370907
21.48193,374825
21.48820,304943
21.49445,231732
21.50070,172196
21.50697,144661
21.51322,133042
21.51947,129232
21.52573,128092
21.53198,126104
21.53823,129552
21.54450,136790
21.55075,150574
21.55700,146860
21.56327,141404
21.56952,140475
21.57577,144589
21.58203,153464
21.58828,156473
21.59453,157076
21.60080,147540
21.60705,134357
21.61330,129113
21.61957,126431
21.62582,121327
21.63207,119225
21.63833,114951
21.64458,113224
21.65083,110917
21.65710,110726
21.66335,108452
21.66960,107698
21.67587,109030
21.68212,113884
21.68837,117185
21.69462,118511
21.70088,119958
21.70713,116085
21.71338,112127
21.71965,111327
21.72590,111305
21.73215,119893
21.73842,126883
21.74467,124695
21.75092,123638
21.75718,128094
21.76343,131081
21.76968,133992
21.77595,127889
21.78220,125747
21.78845,121458
21.79472,114727
21.80097,115713
21.80722,116730
21.81348,125544
21.81973,136389
21.82598,145217
21.83225,143208
21.83850,135332
21.84475,129387
21.85102,123300
21.85727,123452
21.86352,120466
21.86978,119859
21.87603,119707
21.88228,114864
21.88855,113030
21.89480,113752
21.90105,116389
21.90732,138832
21.91357,177565
21.91982,232873
21.92607,268014
21.93233,248797
21.93858,218839
21.94483,202027
21.95110,197736
21.95735,183030
21.96360,158309
21.96987,133602
21.97612,121625
21.98237,121080
21.98863,122784
21.99488,128830
22.00113,126146
22.00740,127017
22.01365,122658
22.01990,126992
22.02617,128292
22.03242,140476
22.03867,161058
22.04493,193331
22.05118,227568
22.05743,244223
22.06370,248660
22.06995,242186
22.07620,249270
22.08247,272622
22.08872,288340
22.09497,268699
22.10123,224868
22.10748,179337
22.11373,155651
22.12000,147055
22.12625,151277
22.13250,158399
22.13877,161646
22.14502,153760
22.15127,142185
22.15752,132339
22.16378,130140
22.17003,132289
22.17628,134035
22.18255,133321
22.18880,127160
22.19505,125407
22.20132,121820
22.20757,126302
22.21382,121334
22.22008,121971
22.22633,128019
22.23258,127966
22.23885,138534
22.24510,146570
22.25135,183548
22.25762,243880
22.26387,331373
22.27012,415402
22.27638,437030
22.28263,403838
22.28888,328688
22.29515,281130
22.30140,255195
22.30765,228096
22.31392,209118
22.32017,184955
22.32642,167883
22.33268,155352
22.33893,144556
22.34518,147117
22.35145,162772
22.35770,228723
22.36395,428700
22.37020,872189
22.37647,1309375
22.38272,1464804
22.38897,1202787
22.39523,747469
22.40148,406795
22.40773,237925
22.41400,175462
22.42025,156608
22.42650,150019
22.43277,147995
22.43902,154167
22.44527,168123
22.45153,201915
22.45778,263625
22.46403,400886
22.47030,524616
22.47655,578532
22.48280,520182
22.48907,388037
22.49532,289679
22.50157,242120
22.50783,222573
22.51408,208224
22.52033,183194
22.52660,167852
22.53285,163161
22.53910,173249
22.54537,217794
22.55162,300208
22.55787,391857
22.56413,441031
22.57038,420784
22.57663,351708
22.58290,278109
22.58915,223291
22.59540,189155
22.60165,166559
22.60792,151908
22.61417,142353
22.62042,138321
22.62668,134380
22.63293,134884
22.63918,140555
22.64545,145592
22.65170,152322
22.65795,159929
22.66422,163340
22.67047,161675
22.67672,164290
22.68298,162223
22.68923,164819
22.69548,158647
22.70175,159415
22.70800,152985
22.71425,144905
22.72052,142533
22.72677,140720
22.73302,138770
22.73928,139035
22.74553,140989
22.75178,144472
22.75805,140010
22.76430,144094
22.77055,151337
22.77682,163305
22.78307,186703
22.78932,293302
22.79558,705042
22.80183,2055700
22.80808,5066382
22.81433,9296889
22.82060,1.221345E+07
22.82685,1.065965E+07
22.83310,6449324
22.83937,2781895
22.84562,1204615
22.85187,618519
22.85813,391670
22.86438,291904
22.87063,248264
22.87690,221338
22.88315,205506
22.88940,192283
22.89567,182676
22.90192,172391
22.90817,168717
22.91443,161458
22.92068,157010
22.92693,151195
22.93320,144610
22.93945,144338
22.94570,143628
22.95197,144852
22.95822,145478
22.96447,145857
22.97073,147305
22.97698,152765
22.98323,150854
22.98950,149619
22.99575,154025
23.00200,150860
23.00827,145857
23.01452,146116
23.02077,141212
23.02702,136663
23.03328,134024
23.03953,132563
23.04578,130106
23.05205,132476
23.05830,131622
23.06455,130547
23.07082,136339
23.07707,141087
23.08332,161769
23.08958,165959
23.09583,165251
23.10208,159287
23.10835,150682
23.11460,141287
23.12085,138391
23.12712,130784
23.13337,129958
23.13962,123670
23.14588,129643
23.15213,124374
23.15838,129026
23.16465,123537
23.17090,125491
23.17715,127041
23.18342,125648
23.18967,132689
23.19592,134800
23.20218,137927
23.20843,140579
23.21468,142487
23.22095,135310
23.22720,137120
23.23345,133152
23.23972,129023
23.24597,135649
23.25222,140548
23.25847,142221
23.26473,141048
23.27098,137719
23.27723,133688
23.28350,129386
23.28975,129609
23.29600,125859
23.30227,127368
23.30852,127780
23.31477,130053
23.32103,132773
23.32728,130120
23.33353,128120
23.33980,129358
23.34605,133786
23.35230,138106
23.35857,141052
23.36482,138185
23.37107,132770
23.37733,131616
23.38358,130861
23.38983,142771
23.39610,148493
23.40235,154649
23.40860,158353
23.41487,157625
23.42112,150369
23.42737,147112
23.43363,143050
23.43988,138813
23.44613,136553
23.45240,134627
23.45865,135495
23.46490,136017
23.47115,133351
23.47742,135828
23.48367,141880
23.48992,148287
23.49618,153361
23.50243,170213
23.50868,186509
23.51495,225836
23.52120,299179
23.52745,375088
23.53372,408264
23.53997,371426
23.54622,306431
23.55248,240959
23.55873,198119
23.56498,178437
23.57125,168037
23.57750,164085
23.58375,162606
23.59002,167813
23.59627,170770
23.60252,174627
23.60878,174510
23.61503,173666
23.62128,167443
23.62755,160861
23.63380,156960
23.64005,150968
23.64632,150889
23.65257,148855
23.65882,148657
23.66508,143955
23.67133,146816
23.67758,146983
23.68383,148614
23.69010,151438
23.69635,157483
23.70260,168744
23.70887,173876
23.71512,173492
23.72137,184121
23.72763,222432
23.73388,299222
23.74013,376118
23.74640,411191
23.75265,364420
23.75890,290857
23.76517,229704
23.77142,198229
23.77767,181192
23.78393,174405
23.79018,172873
23.79643,175754
23.80270,170644
23.80895,172635
23.81520,170774
23.82147,173959
23.82772,177688
23.83397,175974
23.84023,172644
23.84648,171227
23.85273,169571
23.85900,168786
23.86525,166492
23.87150,170515
23.87777,175129
23.88402,206434
23.89027,248009
23.89653,295342
23.90278,327666
23.90903,307740
23.91528,271997
23.92155,240284
23.92780,214852
23.93405,207263
23.94032,205540
23.94657,213837
23.95282,235171
23.95908,327013
23.96533,652262
23.97158,1276223
23.97785,2222591
23.98410,2640549
23.99035,2437236
23.99662,1717194
24.00287,1094926
24.00912,693985
24.01538,496251
24.02163,390365
24.02788,324353
24.03415,285047
24.04040,256528
24.04665,242599
24.05292,231943
24.05917,236515
24.06542,252832
24.07168,288597
24.07793,323050
24.08418,353553
24.09045,352449
24.09670,330272
24.10295,297252
24.10922,268765
24.11547,249647
24.12172,239609
24.12797,236724
24.13423,229808
24.14048,228702
24.14673,231526
24.15300,231809
24.15925,222387
24.16550,217306
24.17177,211619
24.17802,216700
24.18427,228198
24.19053,247721
24.19678,293578
24.20303,443727
24.20930,876364
24.21555,2387326
24.22180,6049427
24.22807,1.30041E+07
24.23432,2.153199E+07
24.24057,2.85787E+07
24.24683,3.527469E+07
24.25308,3.899662E+07
24.25933,4.089242E+07
24.26560,4.112766E+07
24.27185,3.92989E+07
24.27810,2.462021E+07
24.28437,7898510
24.29062,3349424
24.29687,2101977
24.30313,1591602
24.30938,1326327
24.31563,1160146
24.32190,1051524
24.32815,1000278
24.33440,956270
24.34065,929553
24.34692,915242
24.35317,942637
24.35942,944990
24.36568,972328
24.37193,967344
24.37818,977776
24.38445,970723
24.39070,968535
24.39695,939508
24.40322,899073
24.40947,850753
24.41572,807956
24.42198,775819
24.42823,742069
24.43448,713317
24.44075,703639
24.44700,665098
24.45325,644688
24.45952,608708
24.46577,574258
24.47202,554338
24.47828,528399
24.48453,507907
24.49078,482515
24.49705,470350
24.50330,459946
24.50955,448012
24.51582,436299
24.52207,426201
24.52832,420586
24.53458,406391
24.54083,400975
24.54708,390692
24.55335,376855
24.55960,369088
24.56585,354955
24.57210,337936
24.57837,334146
24.58462,334309
24.59087,331317
24.59713,331926
24.60338,328007
24.60963,308344
24.61590,296893
24.62215,273684
24.62840,261447
24.63467,253159
24.64092,250732
24.64717,245929
24.65343,247040
24.65968,237874
24.66593,228217
24.67220,223515
24.67845,210775
24.68470,206278
24.69097,198484
24.69722,192811
24.70347,186877
24.70973,186974
24.71598,180675
24.72223,178922
24.72850,175224
24.73475,170566
24.74100,174136
24.74727,171307
24.75352,171077
24.75977,169426
24.76603,167843
24.77228,179281
24.77853,187145
24.78478,197239
24.79105,185220
24.79730,174904
24.80355,164522
24.80982,153611
24.81607,149228
24.82232,143906
24.82858,145051
24.83483,142458
24.84108,138862
24.84735,137407
24.85360,137410
24.85985,133234
24.86612,141345
24.87237,141349
24.87862,154940
24.88488,172802
24.89113,190091
24.89738,218830
24.90365,242384
24.90990,241576
24.91615,219531
24.92242,199709
24.92867,189420
24.93492,190700
24.94118,183730
24.94743,179717
24.95368,168694
24.95995,157934
24.96620,157894
24.97245,160690
24.97872,154857
24.98497,149533
24.99122,141483
24.99748,138067
25.00373,130642
25.00998,131336
25.01623,128111
25.02250,125711
25.02875,127975
25.03500,124917
25.04127,126078
25.04752,128392
25.05377,124989
25.06003,124682
25.06628,123911
25.07253,126118
25.07880,123978
25.08505,121638
25.09130,123388
25.09757,122583
25.10382,125027
25.11007,124119
25.11633,122589
25.12258,119893
25.12883,125201
25.13510,123141
25.14135,119577
25.14760,120993
25.15387,119683
25.16012,116250
25.16637,118771
25.17263,118285
25.17888,126410
25.18513,143856
25.19140,163163
25.19765,193349
25.20390,203476
25.21017,188617
25.21642,168174
25.22267,151212
25.22892,141036
25.23518,131492
25.24143,125325
25.24768,125782
25.25395,119281
25.26020,118881
25.26645,122271
25.27272,120727
25.27897,122746
25.28522,133232
25.29148,151444
25.29773,192751
25.30398,240014
25.31025,265326
25.31650,273483
25.32275,242508
25.32902,203800
25.33527,173013
25.34152,160298
25.34778,152535
25.35403,142344
25.36028,140831
25.36655,137190
25.37280,141558
25.37905,135683
25.38532,135139
25.39157,133233
25.39782,136487
25.40408,142851
25.41033,155860
25.41658,164693
25.42285,169094
25.42910,164419
25.43535,151687
25.44162,150446
25.44787,145104
25.45412,140593
25.46037,137390
25.46663,141258
25.47288,137502
25.47913,136460
25.48540,132816
25.49165,141374
25.49790,162497
25.50417,202293
25.51042,244271
25.51667,281836
25.52293,285414
25.52918,265960
25.53543,240257
25.54170,240537
25.54795,269505
25.55420,302287
25.56047,319957
25.56672,286744
25.57297,245621
25.57923,206231
25.58548,180859
25.59173,165036
25.59800,155895
25.60425,149474
25.61050,151279
25.61677,149170
25.62302,147593
25.62927,138687
25.63553,136484
25.64178,128960
25.64803,127552
25.65430,127630
25.66055,125666
25.66680,122668
25.67305,126422
25.67932,123058
25.68557,124163
25.69182,123827
25.69808,127417
25.70433,124360
25.71058,122388
25.71685,118743
25.72310,117615
25.72935,118778
25.73562,112896
25.74187,113528
25.74812,117608
25.75438,116502
25.76063,118178
25.76688,119872
25.77315,116014
25.77940,119896
25.78565,116173
25.79192,115623
25.79817,120764
25.80442,116728
25.81068,114445
25.81693,115000
25.82318,110088
25.82945,107683
25.83570,113396
25.84195,111596
25.84822,110501
25.85447,110872
25.86072,112533
25.86698,116711
25.87323,117627
25.87948,119609
25.88575,117369
25.89200,114160
25.89825,115058
25.90450,110015
25.91077,112690
25.91702,115715
25.92327,117524
25.92953,113701
25.93578,112024
25.94203,113120
25.94830,116825
25.95455,112874
25.96080,113099
25.96707,112063
25.97332,108930
25.97957,110807
25.98583,111328
25.99208,111092
25.99833,110552
26.00460,113820
26.01085,112554
26.01710,112432
26.02337,114637
26.02962,115654
26.03587,117246
26.04213,116770
26.04838,119870
26.05463,129278
26.06090,126587
26.06715,127811
26.07340,123823
26.07967,122361
26.08592,119012
26.09217,118516
26.09843,118810
26.10468,115484
26.11093,118857
26.11718,119944
26.12345,117169
26.12970,120173
26.13595,115344
26.14222,114008
26.14847,114898
26.15472,113082
26.16098,113585
26.16723,112437
26.17348,116961
26.17975,117463
26.18600,119124
26.19225,119514
26.19852,117566
26.20477,117514
26.21102,116578
26.21728,118089
26.22353,121641
26.22978,119345
26.23605,117182
26.24230,122217
26.24855,118430
26.25482,121008
26.26107,119192
26.26732,118040
26.27358,115767
26.27983,119373
26.28608,117969
26.29235,119608
26.29860,120876
26.30485,123404
26.31112,116140
26.31737,117740
26.32362,116096
26.32987,120114
26.33613,117426
26.34238,120888
26.34863,122362
26.35490,122308
26.36115,124311
26.36740,126613
26.37367,125003
26.37992,121476
26.38617,124629
26.39243,123772
26.39868,121993
26.40493,126297
26.41120,124577
26.41745,124846
26.42370,128420
26.42997,129162
26.43622,127117
26.44247,125742
26.44873,126691
26.45498,125823
26.46123,126727
26.46750,123140
26.47375,128729
26.48000,134235
26.48627,134213
26.49252,129767
26.49877,136379
26.50503,131494
26.51128,131446
26.51753,132859
26.52380,130419
26.53005,138203
26.53630,144038
26.54257,159312
26.54882,159469
26.55507,152657
26.56132,149232
26.56758,146433
26.57383,143999
26.58008,139920
26.58635,139635
26.59260,139224
26.59885,139777
26.60512,136237
26.61137,141662
26.61762,151958
26.62388,156875
26.63013,164391
26.63638,161357
26.64265,154422
26.64890,150019
26.65515,153813
26.66142,154955
26.66767,161724
26.67392,180114
26.68018,186915
26.68643,184603
26.69268,185318
26.69895,183617
26.70520,183787
26.71145,193374
26.71772,202333
26.72397,195558
26.73022,190386
26.73648,176345
26.74273,166212
26.74898,167597
26.75525,164988
26.76150,176798
26.76775,206259
26.77400,257882
26.78027,301025
26.78652,315984
26.79277,299182
26.79903,267177
26.80528,250776
26.81153,239184
26.81780,215028
26.82405,202956
26.83030,192980
26.83657,190694
26.84282,186974
26.84907,190577
26.85533,190002
26.86158,183895
26.86783,194385
26.87410,191149
26.88035,195302
26.88660,212802
26.89287,240354
26.89912,276189
26.90537,337701
26.91163,449307
26.91788,870167
26.92413,2012192
26.93040,4502812
26.93665,8696349
26.94290,1.482574E+07
26.94917,1.937787E+07
26.95542,1.92544E+07
26.96167,1.331073E+07
26.96793,6888720
26.97418,3644178
26.98043,2256250
26.98668,1526268
26.99295,1070496
26.99920,792688
27.00545,627557
27.01172,529804
27.01797,523497
27.02422,603861
27.03048,793002
27.03673,1031615
27.04298,1149023
27.04925,1047410
27.05550,822672
27.06175,632493
27.06802,530819
27.07427,465396
27.08052,424033
27.08678,398768
27.09303,359336
27.09928,333735
27.10555,308613
27.11180,284159
27.11805,276884
27.12432,269666
27.13057,275829
27.13682,307440
27.14308,351682
27.14933,397658
27.15558,420161
27.16185,399455
27.16810,345586
27.17435,302297
27.18062,292288
27.18687,289917
27.19312,281398
27.19938,272420
27.20563,262370
27.21188,248506
27.21813,248758
27.22440,247154
27.23065,250299
27.23690,236608
27.24317,242156
27.24942,229604
27.25567,241034
27.26193,244697
27.26818,257286
27.27443,246422
27.28070,249530
27.28695,233842
27.29320,233170
27.29947,230584
27.30572,226348
27.31197,222607
27.31823,224243
27.32448,234050
27.33073,230702
27.33700,225295
27.34325,224465
27.34950,227222
27.35577,228423
27.36202,230980
27.36827,236614
27.37453,242643
27.38078,238660
27.38703,239313
27.39330,238043
27.39955,235091
27.40580,240186
27.41207,242949
27.41832,258368
27.42457,272500
27.43082,271664
27.43708,268295
27.44333,263768
27.44958,251544
27.45585,237910
27.46210,237183
27.46835,225859
27.47462,221871
27.48087,223203
27.48712,221627
27.49338,221828
27.49963,216776
27.50588,225236
27.51215,220212
27.51840,221463
27.52465,216454
27.53092,215438
27.53717,210965
27.54342,215325
27.54968,217764
27.55593,218311
27.56218,218201
27.56845,212784
27.57470,207460
27.58095,207643
27.58722,212234
27.59347,207754
27.59972,211913
27.60598,207727
27.61223,214304
27.61848,217382
27.62475,215531
27.63100,213791
27.63725,215331
27.64352,218200
27.64977,221702
27.65602,214288
27.66227,215160
27.66853,216717
27.67478,213698
27.68103,225420
27.68730,219937
27.69355,227373
27.69980,216443
27.70607,215886
27.71232,227429
27.71857,221636
27.72483,227324
27.73108,233774
27.73733,244852
27.74360,243324
27.74985,243101
27.75610,231698
27.76237,232383
27.76862,233114
27.77487,234358
27.78113,237807
27.78738,229979
27.79363,229277
27.79990,227300
27.80615,230064
27.81240,226389
27.81867,228857
27.82492,228868
27.83117,228231
27.83743,220940
27.84368,226577
27.84993,225976
27.85620,231583
27.86245,244595
27.86870,253881
27.87495,268018
27.88122,264463
27.88747,259663
27.89372,248320
27.89998,240318
27.90623,238605
27.91248,237351
27.91875,244883
27.92500,236459
27.93125,242528
27.93752,248182
27.94377,229756
27.95002,232389
27.95628,238124
27.96253,229430
27.96878,234401
27.97505,232714
27.98130,233862
27.98755,233026
27.99382,245979
28.00007,248784
28.00632,252170
28.01258,249439
28.01883,243711
28.02508,245828
28.03135,250092
28.03760,242899
28.04385,246454
28.05012,240945
28.05637,239117
28.06262,242829
28.06888,243822
28.07513,245263
28.08138,245045
28.08765,245798
28.09390,234622
28.10015,246874
28.10640,241757
28.11267,249464
28.11892,238921
28.12517,247776
28.13143,246430
28.13768,253615
28.14393,239780
28.15020,242233
28.15645,242548
28.16270,241207
28.16897,252442
28.17522,238395
28.18147,244625
28.18773,239176
28.19398,243711
28.20023,250357
28.20650,250650
28.21275,240768
28.21900,241688
28.22527,242336
28.23152,247420
28.23777,247758
28.24403,254735
28.25028,248779
28.25653,243554
28.26280,251284
28.26905,244127
28.27530,255230
28.28157,249160
28.28782,252710
28.29407,245848
28.30033,247717
28.30658,255967
28.31283,250004
28.31908,252850
28.32535,257060
28.33160,266808
28.33785,254462
28.34412,267843
28.35037,279392
28.35662,278481
28.36288,269692
28.36913,287105
28.37538,284057
28.38165,292687
28.38790,294164
28.39415,303665
28.40042,302982
28.40667,317256
28.41292,332793
28.41918,323820
28.42543,336835
28.43168,340829
28.43795,340474
28.44420,332069
28.45045,339007
28.45672,345573
28.46297,333490
28.46922,323740
28.47548,327849
28.48173,322505
28.48798,317234
28.49425,330940
28.50050,318722
28.50675,310074
28.51302,305061
28.51927,304017
28.52552,298849
28.53178,291185
28.53803,285259
28.54428,284880
28.55053,290292
28.55680,279822
28.56305,271539
28.56930,271831
28.57557,277397
28.58182,268748
28.58807,274939
28.59433,265081
28.60058,276731
28.60683,265002
28.61310,274201
28.61935,261826
28.62560,265937
28.63187,259771
28.63812,258148
28.64437,260059
28.65063,259777
28.65688,267158
28.66313,266560
28.66940,258837
28.67565,270391
28.68190,265725
28.68817,257496
28.69442,259071
28.70067,263290
28.70693,263086
28.71318,266059
28.71943,255445
28.72570,268395
28.73195,258587
28.73820,261468
28.74447,260627
28.75072,256566
28.75697,256305
28.76322,256532
28.76948,255005
28.77573,252563
28.78198,258084
28.78825,254962
28.79450,258762
28.80075,251553
28.80702,253172
28.81327,253147
28.81952,249536
28.82578,260984
28.83203,260837
28.83828,252368
28.84455,254293
28.85080,252658
28.85705,251396
28.86332,256098
28.86957,258327
28.87582,252516
28.88208,257937
28.88833,249434
28.89458,252747
28.90085,250402
28.90710,253793
28.91335,258053
28.91962,256888
28.92587,248361
28.93212,260655
28.93838,252150
28.94463,258082
28.95088,248477
28.95715,247945
28.96340,256043
28.96965,245712
28.97590,247295
28.98217,247925
28.98842,248315
28.99467,246558
29.00093,251408
29.00718,247844
29.01343,248891
29.01970,257192
29.02595,248775
29.03220,254758
29.03847,256003
29.04472,244369
29.05097,257136
29.05723,248330
29.06348,254386
29.06973,249027
29.07600,245739
29.08225,251634
29.08850,253910
29.09477,245015
29.10102,244909
29.10727,242918
29.11353,246569
29.11978,246755
29.12603,254566
29.13230,242886
29.13855,240211
29.14480,252760
29.15107,245632
29.15732,253112
29.16357,250624
29.16983,246662
29.17608,241503
29.18233,243321
29.18860,245854
29.19485,245569
29.20110,252865
29.20735,245350
29.21362,241763
29.21987,247499
29.22612,250919
29.23238,249517
29.23863,252143
29.24488,266193
29.25115,269634
29.25740,274497
29.26365,265439
29.26992,260005
29.27617,264929
29.28242,254744
29.28868,254854
29.29493,256078
29.30118,243459
29.30745,247329
29.31370,245876
29.31995,250557
29.32622,241992
29.33247,248438
29.33872,243593
29.34498,243444
29.35123,244723
29.35748,243264
29.36375,244996
29.37000,243612
29.37625,251851
29.38252,240991
29.38877,242901
29.39502,240602
29.40128,240433
29.40753,243619
29.41378,244053
29.42003,244416
29.42630,247546
29.43255,249970
29.43880,249655
29.44507,245115
29.45132,243278
29.45757,245292
29.46383,241713
29.47008,248047
29.47633,247649
29.48260,242732
29.48885,247872
29.49510,242031
29.50137,236514
29.50762,242060
29.51387,245488
29.52013,234466
29.52638,240296
29.53263,238701
29.53890,237497
29.54515,241361
29.55140,236458
29.55767,238584
29.56392,236553
29.57017,235410
29.57643,236062
29.58268,244530
29.58893,238618
29.59520,246052
29.60145,241504
29.60770,238863
29.61397,244030
29.62022,235926
29.62647,250527
29.63272,247260
29.63898,237326
29.64523,237309
29.65148,241555
29.65775,234607
29.66400,240561
29.67025,244360
29.67652,233638
29.68277,236336
29.68902,234882
29.69528,237761
29.70153,241073
29.70778,243806
29.71405,237443
29.72030,233296
29.72655,232325
29.73282,242300
29.73907,232720
29.74532,244838
29.75158,236906
29.75783,235930
29.76408,233152
29.77035,242326
29.77660,242606
29.78285,238886
29.78912,243895
29.79537,232804
29.80162,243546
29.80788,233566
29.81413,240814
29.82038,240979
29.82665,244188
29.83290,233714
29.83915,235515
29.84542,229737
29.85167,232472
29.85792,234632
29.86417,232322
29.87043,243614
29.87668,231895
29.88293,232848
29.88920,235745
29.89545,233628
29.90170,231693
29.90797,230267
29.91422,237780
29.92047,233416
29.92673,236432
29.93298,239084
29.93923,233360
29.94550,229584
29.95175,242865
29.95800,235890
29.96427,229784
29.97052,236597
29.97677,230809
29.98303,231744
29.98928,231076
29.99553,225840
30.00180,229644
30.00805,229372
30.01430,234601
30.02057,230913
30.02682,237902
30.03307,230220
30.03933,237172
30.04558,231962
30.05183,230646
30.05810,226663
30.06435,230639
30.07060,234291
30.07685,231711
30.08312,231569
30.08937,230998
30.09562,228570
30.10188,228568
30.10813,235740
30.11438,230489
30.12065,235027
30.12690,232531
30.13315,225102
30.13942,228520
30.14567,229192
30.15192,233671
30.15818,236479
30.16443,226575
30.17068,228589
30.17695,229920
30.18320,227237
30.18945,233275
30.19572,234382
30.20197,229022
30.20822,226489
30.21448,225522
30.22073,226726
30.22698,224848
30.23325,226797
30.23950,226939
30.24575,228024
30.25202,226991
30.25827,230622
30.26452,233500
30.27078,226738
30.27703,225123
30.28328,230462
30.28955,226400
30.29580,228503
30.30205,224871
30.30830,224753
30.31457,227028
30.32082,226517
30.32707,228071
30.33333,232076
30.33958,234125
30.34583,226206
30.35210,225637
30.35835,232848
30.36460,231239
30.37087,224175
30.37712,225624
30.38337,224714
30.38963,222943
30.39588,222759
30.40213,232733
30.40840,230315
30.41465,227316
30.42090,226234
30.42717,227858
30.43342,224889
30.43967,227242
30.44593,222123
30.45218,223688
30.45843,228725
30.46470,220840
30.47095,222018
30.47720,232388
30.48347,223156
30.48972,219298
30.49597,232377
30.50223,231537
30.50848,220464
30.51473,219938
30.52098,223397
30.52725,222277
30.53350,222141
30.53975,230011
30.54602,219628
30.55227,227941
30.55852,231745
30.56478,221660
30.57103,229691
30.57728,220254
30.58355,218556
30.58980,226681
30.59605,229967
30.60232,220521
30.60857,227922
30.61482,217226
30.62108,219710
30.62733,216924
30.63358,222508
30.63985,216099
30.64610,226153
30.65235,226645
30.65862,226008
30.66487,219023
30.67112,218528
30.67738,227197
30.68363,222197
30.68988,228535
30.69615,225419
30.70240,221103
30.70865,220754
30.71492,220802
30.72117,218135
30.72742,225126
30.73368,228185
30.73993,219023
30.74618,223684
30.75243,220256
30.75870,218287
30.76495,219765
30.77120,219301
30.77747,218308
30.78372,220874
30.78997,217021
30.79623,223362
30.80248,219448
30.80873,218956
30.81500,225991
30.82125,220833
30.82750,224653
30.83377,222391
30.84002,220199
30.84627,214148
30.85253,218290
30.85878,218535
30.86503,212779
30.87130,215832
30.87755,217054
30.88380,215080
30.89007,214665
30.89632,215838
30.90257,214059
30.90883,215610
30.91508,217666
30.92133,217803
30.92760,218651
30.93385,219798
30.94010,218440
30.94637,212872
30.95262,213424
30.95887,218696
30.96512,216240
30.97138,222972
30.97763,215696
30.98388,217741
30.99015,214734
30.99640,213366
31.00265,221816
31.00892,217368
31.01517,224236
31.02142,219550
31.02768,235301
31.03393,223386
31.04018,222560
31.04645,223754
31.05270,229602
31.05895,225471
31.06522,225245
31.07147,223409
31.07772,217579
31.08398,216409
31.09023,216425
31.09648,221143
31.10275,213188
31.10900,211057
31.11525,212391
31.12152,227378
31.12777,215466
31.13402,212588
31.14028,220441
31.14653,218366
31.15278,212594
31.15905,221952
31.16530,210824
31.17155,213932
31.17782,214196
31.18407,213143
31.19032,222270
31.19657,211342
31.20283,212007
31.20908,211210
31.21533,218506
31.22160,212984
31.22785,218237
31.23410,219085
31.24037,216813
31.24662,220946
31.25287,214744
31.25913,214896
31.26538,211162
31.27163,210273
31.27790,210764
31.28415,212871
31.29040,216822
31.29667,213376
31.30292,213459
31.30917,215056
31.31543,210779
31.32168,212061
31.32793,209200
31.33420,207405
31.34045,210508
31.34670,213247
31.35297,210174
31.35922,206023
31.36547,216252
31.37173,207650
31.37798,208527
31.38423,218954
31.39050,216384
31.39675,219756
31.40300,218786
31.40925,220374
31.41552,211081
31.42177,217338
31.42802,210696
31.43428,224355
31.44053,214366
31.44678,213232
31.45305,217822
31.45930,216712
31.46555,215369
31.47182,218811
31.47807,219649
31.48432,213527
31.49058,223498
31.49683,213708
31.50308,218517
31.50935,213671
31.51560,216208
31.52185,216042
31.52812,217248
31.53437,215426
31.54062,211841
31.54688,215611
31.55313,217151
31.55938,216496
31.56565,213034
31.57190,210682
31.57815,212275
31.58442,209069
31.59067,206054
31.59692,213981
31.60318,215896
31.60943,212168
31.61568,217370
31.62193,212421
31.62820,208587
31.63445,209515
31.64070,204668
31.64697,213939
31.65322,204591
31.65947,209010
31.66573,209104
31.67198,210660
31.67823,208701
31.68450,204372
31.69075,209034
31.69700,207559
31.70327,216028
31.70952,209101
31.71577,209311
31.72203,211566
31.72828,206439
31.73453,213619
31.74080,210896
31.74705,201765
31.75330,205116
31.75957,205730
31.76582,208616
31.77207,210163
31.77833,205162
31.78458,211112
31.79083,206696
31.79710,205046
31.80335,204738
31.80960,207969
31.81587,214878
31.82212,204003
31.82837,204122
31.83463,208239
31.84088,206853
31.84713,209713
31.85338,200354
31.85965,203549
31.86590,205201
31.87215,202930
31.87842,205552
31.88467,201027
31.89092,207404
31.89718,203599
31.90343,199256
31.90968,202799
31.91595,202968
31.92220,200599
31.92845,206523
31.93472,207236
31.94097,205846
31.94722,205438
31.95348,208151
31.95973,205602
31.96598,203412
31.97225,201636
31.97850,207520
31.98475,200978
31.99102,200028
31.99727,199400
32.00352,206881
32.00978,210832
32.01603,208154
32.02228,200133
32.02855,202168
32.03480,201693
32.04105,201467
32.04732,205294
32.05357,202721
32.05982,201636
32.06607,200162
32.07233,207077
32.07858,200995
32.08483,204896
32.09110,196748
32.09735,200856
32.10360,200618
32.10987,200341
32.11612,206011
32.12237,200370
32.12863,198059
32.13488,198505
32.14113,199548
32.14740,200572
32.15365,200772
32.15990,198587
32.16617,197579
32.17242,197089
32.17867,197605
32.18493,208221
32.19118,198202
32.19743,200138
32.20370,199179
32.20995,207054
32.21620,200947
32.22247,203929
32.22872,195391
32.23497,198770
32.24123,200425
32.24748,199291
32.25373,203434
32.26000,197668
32.26625,197408
32.27250,198305
32.27875,202030
32.28502,205327
32.29127,205662
32.29752,197900
32.30378,203188
32.31003,197980
32.31628,204945
32.32255,196839
32.32880,191277
32.33505,205278
32.34132,198593
32.34757,199349
32.35382,193841
32.36008,196259
32.36633,197977
32.37258,194452
32.37885,200008
32.38510,199381
32.39135,203959
32.39762,198978
32.40387,197008
32.41012,200694
32.41638,194859
32.42263,194451
32.42888,197655
32.43515,195086
32.44140,199368
32.44765,201763
32.45392,197154
32.46017,203170
32.46642,203171
32.47268,199754
32.47893,194503
32.48518,199538
32.49145,192838
32.49770,199591
32.50395,201523
32.51020,194713
32.51647,194629
32.52272,198357
32.52897,195104
32.53523,192428
32.54148,197474
32.54773,192441
32.55400,195365
32.56025,202286
32.56650,195852
32.57277,189887
32.57902,201122
32.58527,191915
32.59153,197349
32.59778,200715
32.60403,191119
32.61030,189972
32.61655,196146
32.62280,198125
32.62907,192965
32.63532,199670
32.64157,193305
32.64783,190427
32.65408,192019
32.66033,195468
32.66660,195480
32.67285,200872
32.67910,194600
32.68537,196843
32.69162,198223
32.69787,195797
32.70413,191898
32.71038,198769
32.71663,192542
32.72288,193108
32.72915,191139
32.73540,191312
32.74165,198141
32.74792,192194
32.75417,194452
32.76042,189376
32.76668,189391
32.77293,198601
32.77918,190977
32.78545,195955
32.79170,191345
32.79795,191752
32.80422,193759
32.81047,196643
32.81672,190044
32.82298,192084
32.82923,190626
32.83548,195404
32.84175,192237
32.84800,190877
32.85425,185792
32.86052,190238
32.86677,193563
32.87302,188425
32.87928,190008
32.88553,195473
32.89178,191865
32.89805,195265
32.90430,189544
32.91055,188524
32.91682,197040
32.92307,188798
32.92932,194428
32.93558,196797
32.94183,186599
32.94808,191360
32.95433,195516
32.96060,193620
32.96685,186525
32.97310,195344
32.97937,185909
32.98562,188627
32.99187,195095
32.99813,187647
33.00438,192764
33.01063,189228
33.01690,184809
33.02315,193830
33.02940,187003
33.03567,194903
33.04192,189440
33.04817,195758
33.05443,189666
33.06068,192511
33.06693,186616
33.07320,190656
33.07945,194471
33.08570,188411
33.09197,187228
33.09822,190075
33.10447,187561
33.11073,186384
33.11698,182095
33.12323,188721
33.12950,192778
33.13575,194850
33.14200,187985
33.14827,187007
33.15452,187607
33.16077,189557
33.16702,194629
33.17328,198381
33.17953,194946
33.18578,198116
33.19205,200846
33.19830,196541
33.20455,194877
33.21082,194271
33.21707,200174
33.22332,198973
33.22958,198643
33.23583,195962
33.24208,189131
33.24835,189777
33.25460,186566
33.26085,188057
33.26712,193048
33.27337,191431
33.27962,184487
33.28588,193251
33.29213,184594
33.29838,189334
33.30465,182986
33.31090,183108
33.31715,187859
33.32342,186379
33.32967,185571
33.33592,188030
33.34218,184759
33.34843,184012
33.35468,180812
33.36095,189814
33.36720,187015
33.37345,183770
33.37972,190875
33.38597,187172
33.39222,187366
33.39847,186559
33.40473,185778
33.41098,192872
33.41723,194303
33.42350,186339
33.42975,185020
33.43600,185782
33.44227,184992
33.44852,191234
33.45477,182076
33.46103,183265
33.46728,185956
33.47353,185158
33.47980,186559
33.48605,188143
33.49230,181570
33.49857,189306
33.50482,184104
33.51107,189067
33.51733,187244
33.52358,181409
33.52983,188690
33.53610,184219
33.54235,185649
33.54860,184618
33.55487,179017
33.56112,185495
33.56737,184232
33.57363,179782
33.57988,184655
33.58613,187570
33.59240,184651
33.59865,181057
33.60490,186787
33.61115,181208
33.61742,182714
33.62367,187994
33.62992,183553
33.63618,182486
33.64243,178605
33.64868,179466
33.65495,184590
33.66120,183574
33.66745,184825
33.67372,179843
33.67997,182456
33.68622,182544
33.69248,182403
33.69873,180175
33.70498,184051
33.71125,177952
33.71750,179115
33.72375,181590
33.73002,176397
33.73627,178222
33.74252,178746
33.74878,177392
33.75503,182303
33.76128,185406
33.76755,183486
33.77380,180111
33.78005,180237
33.78632,180883
33.79257,181374
33.79882,187189
33.80508,179682
33.81133,178185
33.81758,183433
33.82385,176312
33.83010,178551
33.83635,178203
33.84260,182842
33.84887,187366
33.85512,175289
33.86137,178253
33.86763,185275
33.87388,176784
33.88013,182331
33.88640,178750
33.89265,181578
33.89890,174860
33.90517,180024
33.91142,172924
33.91767,179657
33.92393,186306
33.93018,183917
33.93643,180826
33.94270,185403
33.94895,178685
33.95520,176747
33.96147,179195
33.96772,178592
33.97397,181185
33.98023,176963
33.98648,177422
33.99273,177087
33.99900,179328
34.00525,175268
34.01150,177725
34.01777,181021
34.02402,175940
34.03027,177328
34.03653,176489
34.04278,174682
34.04903,172460
34.05528,175732
34.06155,180802
34.06780,177658
34.07405,181248
34.08032,177893
34.08657,181856
34.09282,177162
34.09908,180923
34.10533,173850
34.11158,174033
34.11785,177040
34.12410,180032
34.13035,182947
34.13662,183261
34.14287,181218
34.14912,180487
34.15538,175706
34.16163,173984
34.16788,173835
34.17415,179099
34.18040,176522
34.18665,174958
34.19292,176951
34.19917,180433
34.20542,171553
34.21168,178163
34.21793,171921
34.22418,175918
34.23045,175497
34.23670,168103
34.24295,171849
34.24922,173968
34.25547,173619
34.26172,174189
34.26797,175951
34.27423,176723
34.28048,173286
34.28673,178636
34.29300,173186
34.29925,174432
34.30550,176661
34.31177,177680
34.31802,172551
34.32427,174192
34.33053,169527
34.33678,170289
34.34303,177277
34.34930,172930
34.35555,177582
34.36180,178077
34.36807,175057
34.37432,177041
34.38057,174400
34.38683,171766
34.39308,173923
34.39933,173418
34.40560,181167
34.41185,176343
34.41810,178362
34.42437,168316
34.43062,179167
34.43687,172379
34.44313,173453
34.44938,174748
34.45563,172686
34.46190,173975
34.46815,172205
34.47440,174524
34.48067,172382
34.48692,171829
34.49317,180477
34.49942,174474
34.50568,170183
34.51193,171123
34.51818,178507
34.52445,169105
34.53070,171063
34.53695,169062
34.54322,168196
34.54947,177152
34.55572,169801
34.56198,168904
34.56823,171522
34.57448,172138
34.58075,170278
34.58700,168690
34.59325,169939
34.59952,176160
34.60577,172479
34.61202,172535
34.61828,169026
34.62453,175274
34.63078,167875
34.63705,175874
34.64330,172056
34.64955,174282
34.65582,171278
34.66207,169030
34.66832,168135
34.67458,173983
34.68083,169759
34.68708,179989
34.69335,174307
34.69960,173784
34.70585,167912
34.71210,174678
34.71837,171409
34.72462,172849
34.73087,171172
34.73713,171576
34.74338,168221
34.74963,165520
34.75590,169891
34.76215,170549
34.76840,177721
34.77467,173428
34.78092,165537
34.78717,168174
34.79343,168433
34.79968,168488
34.80593,166825
34.81220,169637
34.81845,166802
34.82470,169529
34.83097,166126
34.83722,171980
34.84347,167364
34.84973,166643
34.85598,171351
34.86223,173720
34.86850,168624
34.87475,171066
34.88100,172410
34.88727,168837
34.89352,173987
34.89977,168091
34.90603,166531
34.91228,170525
34.91853,171791
34.92478,174891
34.93105,165292
34.93730,171384
34.94355,172645
34.94982,164932
34.95607,167509
34.96232,164853
34.96858,165502
34.97483,166105
34.98108,169179
34.98735,165631
34.99360,169189
34.99985,164770
35.00612,170568
35.01237,165467
35.01862,166948
35.02488,166035
35.03113,167971
35.03738,168918
35.04365,167278
35.04990,168367
35.05615,164554
35.06242,167175
35.06867,168424
35.07492,170798
35.08118,169765
35.08743,163089
35.09368,165882
35.09995,167797
35.10620,166342
35.11245,166227
35.11872,166633
35.12497,170663
35.13122,163939
35.13748,168350
35.14373,168376
35.14998,166397
35.15623,171967
35.16250,167255
35.16875,163319
35.17500,170724
35.18127,160841
35.18752,162177
35.19377,167214
35.20003,161845
35.20628,172566
35.21253,168512
35.21880,164440
35.22505,164468
35.23130,165307
35.23757,162075
35.24382,164219
35.25007,168044
35.25633,164758
35.26258,161379
35.26883,164667
35.27510,166182
35.28135,159943
35.28760,171394
35.29387,170394
35.30012,163745
35.30637,168515
35.31263,165963
35.31888,162270
35.32513,164164
35.33140,163581
35.33765,164157
35.34390,160078
35.35017,162976
35.35642,162532
35.36267,163752
35.36892,165253
35.37518,163278
35.38143,159883
35.38768,164337
35.39395,165214
35.40020,165481
35.40645,163676
35.41272,162462
35.41897,164305
35.42522,162416
35.43148,162381
35.43773,165972
35.44398,162395
35.45025,167495
35.45650,167064
35.46275,165077
35.46902,160897
35.47527,163409
35.48152,161606
35.48778,158387
35.49403,166464
35.50028,164268
35.50655,168071
35.51280,167446
35.51905,164701
35.52532,160957
35.53157,161576
35.53782,162297
35.54408,159826
35.55033,164809
35.55658,163369
35.56285,163268
35.56910,167369
35.57535,161174
35.58162,158167
35.58787,163289
35.59412,159006
35.60037,161670
35.60663,163204
35.61288,163747
35.61913,169298
35.62540,160230
35.63165,163006
35.63790,161430
35.64417,163529
35.65042,163668
35.65667,160959
35.66293,160302
35.66918,160954
35.67543,169479
35.68170,159879
35.68795,167953
35.69420,163103
35.70047,164896
35.70672,158456
35.71297,163618
35.71923,160306
35.72548,161108
35.73173,160043
35.73800,158125
35.74425,158962
35.75050,166161
35.75677,166102
35.76302,159583
35.76927,155850
35.77553,160436
35.78178,168474
35.78803,160073
35.79430,160313
35.80055,160537
35.80680,158860
35.81305,162900
35.81932,164434
35.82557,156465
35.83182,157021
35.83808,160199
35.84433,161622
35.85058,160090
35.85685,165116
35.86310,157306
35.86935,156870
35.87562,155480
35.88187,156837
35.88812,163911
35.89438,156975
35.90063,157855
35.90688,158681
35.91315,164668
35.91940,157565
35.92565,161611
35.93192,160648
35.93817,159483
35.94442,154392
35.95068,158218
35.95693,164468
35.96318,162795
35.96945,158509
35.97570,158647
35.98195,158432
35.98822,159130
35.99447,161026
36.00072,161540
36.00698,156508
36.01323,156020
36.01948,155584
36.02575,157132
36.03200,156491
36.03825,156947
36.04450,161547
36.05077,161380
36.05702,157484
36.06327,157023
36.06953,160660
36.07578,153382
36.08203,155503
36.08830,155923
36.09455,159897
36.10080,162847
36.10707,158340
36.11332,155415
36.11957,162332
36.12583,154818
36.13208,156433
36.13833,153790
36.14460,156379
36.15085,160743
36.15710,161558
36.16337,156836
36.16962,163951
36.17587,155636
36.18213,159433
36.18838,157176
36.19463,155759
36.20090,154440
36.20715,160227
36.21340,159234
36.21967,155414
36.22592,154547
36.23217,160505
36.23843,152991
36.24468,158824
36.25093,154136
36.25718,162117
36.26345,156153
36.26970,159016
36.27595,161182
36.28222,166676
36.28847,167941
36.29472,173109
36.30098,175385
36.30723,182215
36.31348,193635
36.31975,197832
36.32600,204466
36.33225,213209
36.33852,223386
36.34477,226131
36.35102,231187
36.35728,232968
36.36353,233493
36.36978,241243
36.37605,234120
36.38230,230482
36.38855,226535
36.39482,214148
36.40107,215687
36.40732,211134
36.41358,198797
36.41983,188810
36.42608,190427
36.43235,181070
36.43860,174265
36.44485,173628
36.45112,169404
36.45737,167558
36.46362,167910
36.46988,164882
36.47613,163056
36.48238,160323
36.48863,164990
36.49490,168287
36.50115,162594
36.50740,162951
36.51367,160761
36.51992,167285
36.52617,160006
36.53243,165026
36.53868,161982
36.54493,161125
36.55120,159723
36.55745,161476
36.56370,158614
36.56997,158663
36.57622,159805
36.58247,158253
36.58873,160008
36.59498,159355
36.60123,156507
36.60750,161576
36.61375,155744
36.62000,158250
36.62627,160086
36.63252,162705
36.63877,163612
36.64503,157239
36.65128,159453
36.65753,161024
36.66380,153840
36.67005,154365
36.67630,159803
36.68257,154925
36.68882,154085
36.69507,154649
36.70132,154691
36.70758,159434
36.71383,155514
36.72008,152362
36.72635,156666
36.73260,160026
36.73885,156247
36.74512,152326
36.75137,154791
36.75762,154503
36.76388,156233
36.77013,156647
36.77638,156808
36.78265,153031
36.78890,156664
36.79515,154154
36.80142,155312
36.80767,155455
36.81392,151653
36.82018,154575
36.82643,152896
36.83268,158785
36.83895,156099
36.84520,159548
36.85145,147667
36.85772,155204
36.86397,152189
36.87022,149040
36.87648,155934
36.88273,154962
36.88898,153788
36.89525,158746
36.90150,155370
36.90775,155337
36.91400,151726
36.92027,156852
36.92652,151886
36.93277,152262
36.93903,153248
36.94528,150995
36.95153,152685
36.95780,151759
36.96405,157080
36.97030,152282
36.97657,152386
36.98282,155496
36.98907,152083
36.99533,152589
37.00158,155636
37.00783,150214
37.01410,153802
37.02035,151231
37.02660,147742
37.03287,159470
37.03912,156118
37.04537,151621
37.05163,153236
37.05788,151008
37.06413,146195
37.07040,150464
37.07665,149364
37.08290,149380
37.08917,162000
37.09542,156074
37.10167,150601
37.10793,151679
37.11418,148554
37.12043,150079
37.12670,152243
37.13295,148536
37.13920,149418
37.14545,154441
37.15172,152084
37.15797,150472
37.16422,147870
37.17048,149901
37.17673,150875
37.18298,150545
37.18925,148424
37.19550,147432
37.20175,147799
37.20802,153845
37.21427,152159
37.22052,151623
37.22678,156095
37.23303,147699
37.23928,154659
37.24555,150042
37.25180,145799
37.25805,149762
37.26432,152016
37.27057,152062
37.27682,147053
37.28308,154062
37.28933,152720
37.29558,153249
37.30185,149116
37.30810,147816
37.31435,147375
37.32062,152217
37.32687,146224
37.33312,149157
37.33938,149415
37.34563,145456
37.35188,147588
37.35813,149100
37.36440,147808
37.37065,145958
37.37690,147641
37.38317,145800
37.38942,147640
37.39567,146002
37.40193,149920
37.40818,146473
37.41443,151715
37.42070,147578
37.42695,146500
37.43320,144582
37.43947,151914
37.44572,143899
37.45197,151412
37.45823,147406
37.46448,149667
37.47073,152569
37.47700,146515
37.48325,151394
37.48950,153075
