D:\MassHunter\GCMS\1\data\metastasis_lineages_3replicates_3runs_10302020\ethyl_acetate_run3_10302020.D Sat Oct 31 08:41:13 2020
Start of data points
5.99323,51330
5.99950,54565
6.00575,54566
6.01200,52857
6.01827,51828
6.02452,48082
6.03077,50993
6.03703,50131
6.04328,46189
6.04953,47581
6.05580,44651
6.06205,46949
6.06830,45675
6.07457,46565
6.08082,45605
6.08707,45706
6.09333,43145
6.09958,44098
6.10583,46970
6.11210,50567
6.11835,52944
6.12460,53079
6.13087,48102
6.13712,46666
6.14337,46568
6.14962,54840
6.15588,65553
6.16213,68842
6.16838,64250
6.17465,56118
6.18090,47388
6.18715,45900
6.19342,44703
6.19967,44303
6.20592,40459
6.21218,44410
6.21843,41740
6.22468,41754
6.23095,41449
6.23720,43323
6.24345,41969
6.24972,41690
6.25597,46081
6.26222,56048
6.26848,116216
6.27473,311374
6.28098,676787
6.28725,953410
6.29350,850510
6.29975,542773
6.30602,310762
6.31227,207996
6.31852,171087
6.32478,146029
6.33103,127462
6.33728,121041
6.34355,111509
6.34980,103880
6.35605,94917
6.36230,88481
6.36857,78924
6.37482,75568
6.38107,74580
6.38733,70458
6.39358,67930
6.39983,69316
6.40610,67411
6.41235,62621
6.41860,59752
6.42487,54525
6.43112,55147
6.43737,53707
6.44363,51007
6.44988,50373
6.45613,51740
6.46240,49097
6.46865,50013
6.47490,48188
6.48117,51898
6.48742,54577
6.49367,59142
6.49993,63471
6.50618,57487
6.51243,51716
6.51870,47321
6.52495,46855
6.53120,46591
6.53747,44334
6.54372,46239
6.54997,43663
6.55623,46854
6.56248,44261
6.56873,45340
6.57500,44962
6.58125,42973
6.58750,43943
6.59375,42593
6.60002,39041
6.60627,39205
6.61252,41882
6.61878,39660
6.62503,40675
6.63128,41877
6.63755,44284
6.64380,45149
6.65005,46349
6.65632,44213
6.66257,42949
6.66882,43100
6.67508,39978
6.68133,41065
6.68758,41068
6.69385,40441
6.70010,39850
6.70635,41549
6.71262,41240
6.71887,41073
6.72512,38556
6.73138,39815
6.73763,40677
6.74388,41543
6.75015,39053
6.75640,39078
6.76265,39325
6.76892,38606
6.77517,37751
6.78142,42199
6.78768,40793
6.79393,38341
6.80018,40412
6.80643,42506
6.81270,40681
6.81895,41210
6.82520,41646
6.83147,39565
6.83772,38511
6.84397,37587
6.85023,37755
6.85648,38489
6.86273,37561
6.86900,37950
6.87525,37155
6.88150,36332
6.88777,40657
6.89402,40886
6.90027,42780
6.90653,42781
6.91278,37301
6.91903,38031
6.92530,36636
6.93155,36765
6.93780,36698
6.94407,37029
6.95032,37542
6.95657,35140
6.96283,39186
6.96908,38262
6.97533,37238
6.98160,38121
6.98785,37908
6.99410,36963
7.00037,36354
7.00662,36899
7.01287,35448
7.01912,35492
7.02538,38828
7.03163,35155
7.03788,35979
7.04415,36030
7.05040,36938
7.05665,39206
7.06292,40879
7.06917,38483
7.07542,37251
7.08168,35281
7.08793,35675
7.09418,35461
7.10045,37337
7.10670,35188
7.11295,34480
7.11922,35532
7.12547,34727
7.13172,35856
7.13798,36162
7.14423,35433
7.15048,34818
7.15675,35280
7.16300,36334
7.16925,35530
7.17552,35298
7.18177,35033
7.18802,33699
7.19428,35332
7.20053,34195
7.20678,35466
7.21305,33925
7.21930,33903
7.22555,34720
7.23182,33243
7.23807,35888
7.24432,34734
7.25057,33534
7.25683,35145
7.26308,34915
7.26933,34644
7.27560,33887
7.28185,35894
7.28810,35513
7.29437,34827
7.30062,35870
7.30687,34557
7.31313,34791
7.31938,38549
7.32563,40028
7.33190,41881
7.33815,39860
7.34440,38271
7.35067,38025
7.35692,37200
7.36317,36337
7.36943,34966
7.37568,33618
7.38193,35941
7.38820,35088
7.39445,33424
7.40070,34500
7.40697,33545
7.41322,32698
7.41947,32791
7.42573,34206
7.43198,34297
7.43823,34946
7.44450,34384
7.45075,42496
7.45700,55957
7.46325,82884
7.46952,109274
7.47577,111089
7.48202,89108
7.48828,68553
7.49453,60533
7.50078,68538
7.50705,66973
7.51330,62931
7.51955,72793
7.52582,127621
7.53207,267290
7.53832,452735
7.54458,545500
7.55083,491393
7.55708,333537
7.56335,214911
7.56960,151332
7.57585,110356
7.58212,90272
7.58837,75580
7.59462,66704
7.60088,59889
7.60713,51227
7.61338,49523
7.61965,45283
7.62590,42847
7.63215,41049
7.63842,42110
7.64467,41490
7.65092,41408
7.65718,42439
7.66343,37306
7.66968,40966
7.67595,36670
7.68220,39710
7.68845,34780
7.69470,34783
7.70097,33871
7.70722,31855
7.71347,33065
7.71973,32698
7.72598,32843
7.73223,33153
7.73850,33622
7.74475,34917
7.75100,34012
7.75727,34471
7.76352,36301
7.76977,35167
7.77603,33888
7.78228,32920
7.78853,31725
7.79480,35009
7.80105,35731
7.80730,37263
7.81357,37482
7.81982,37308
7.82607,34389
7.83233,31955
7.83858,30002
7.84483,31572
7.85110,31061
7.85735,31332
7.86360,28428
7.86987,28990
7.87612,29677
7.88237,28855
7.88863,29320
7.89488,28851
7.90113,30382
7.90738,29997
7.91365,31324
7.91990,31982
7.92615,33602
7.93242,35472
7.93867,38100
7.94492,39202
7.95118,40353
7.95743,39743
7.96368,36363
7.96995,37317
7.97620,35068
7.98245,34303
7.98872,31005
7.99497,33118
8.00122,36200
8.00748,38533
8.01373,38485
8.01998,34432
8.02625,33706
8.03250,34110
8.03875,33395
8.04502,33512
8.05127,30584
8.05752,30186
8.06378,30794
8.07003,29573
8.07628,27774
8.08255,28903
8.08880,28861
8.09505,28767
8.10132,29002
8.10757,28639
8.11382,26937
8.12008,27830
8.12633,29963
8.13258,30784
8.13883,30363
8.14510,30394
8.15135,29374
8.15760,29340
8.16387,30644
8.17012,29925
8.17637,29561
8.18263,29165
8.18888,30658
8.19513,29640
8.20140,28691
8.20765,29161
8.21390,27922
8.22017,29050
8.22642,28665
8.23267,27424
8.23893,27998
8.24518,27700
8.25143,28674
8.25770,28440
8.26395,28376
8.27020,27191
8.27647,26956
8.28272,27783
8.28897,29038
8.29523,27613
8.30148,28911
8.30773,27910
8.31400,28575
8.32025,28676
8.32650,28374
8.33277,28699
8.33902,31046
8.34527,29045
8.35152,28446
8.35778,29466
8.36403,26892
8.37028,26812
8.37655,27967
8.38280,27203
8.38905,29987
8.39532,28070
8.40157,27524
8.40782,27585
8.41408,27944
8.42033,28615
8.42658,29825
8.43285,29847
8.43910,30676
8.44535,30073
8.45162,29111
8.45787,28957
8.46412,30415
8.47038,29961
8.47663,27572
8.48288,27837
8.48915,28358
8.49540,26496
8.50165,27746
8.50792,27607
8.51417,27867
8.52042,28682
8.52668,28365
8.53293,28633
8.53918,28186
8.54545,29823
8.55170,30415
8.55795,31432
8.56422,30507
8.57047,31259
8.57672,32656
8.58297,31890
8.58923,34207
8.59548,31939
8.60173,32196
8.60800,31666
8.61425,33696
8.62050,31255
8.62677,32679
8.63302,33147
8.63927,32432
8.64553,33657
8.65178,34806
8.65803,32353
8.66430,33940
8.67055,32196
8.67680,32612
8.68307,34658
8.68932,34308
8.69557,33303
8.70183,32248
8.70808,33859
8.71433,32497
8.72060,30994
8.72685,28609
8.73310,28154
8.73937,29606
8.74562,28380
8.75187,27937
8.75813,26587
8.76438,27790
8.77063,27024
8.77690,28966
8.78315,27704
8.78940,28249
8.79565,27608
8.80192,28082
8.80817,32180
8.81442,37701
8.82068,44316
8.82693,44111
8.83318,40418
8.83945,36315
8.84570,32634
8.85195,31614
8.85822,30135
8.86447,31845
8.87072,32077
8.87698,31945
8.88323,29993
8.88948,28870
8.89575,30519
8.90200,29022
8.90825,28966
8.91452,29272
8.92077,26413
8.92702,27705
8.93328,28179
8.93953,27542
8.94578,30539
8.95205,34343
8.95830,36190
8.96455,38631
8.97082,38279
8.97707,36182
8.98332,36120
8.98958,35002
8.99583,33146
9.00208,31528
9.00833,31232
9.01460,31206
9.02085,29215
9.02710,30522
9.03337,30380
9.03962,29280
9.04587,29813
9.05213,31507
9.05838,31543
9.06463,32371
9.07090,31811
9.07715,29034
9.08340,30784
9.08967,31848
9.09592,30264
9.10217,31004
9.10843,29159
9.11468,30316
9.12093,29702
9.12720,29979
9.13345,28664
9.13970,29219
9.14597,31487
9.15222,31852
9.15847,37865
9.16473,45347
9.17098,51794
9.17723,48193
9.18350,41652
9.18975,39033
9.19600,38680
9.20227,37041
9.20852,38312
9.21477,35706
9.22103,33381
9.22728,30729
9.23353,28787
9.23978,29950
9.24605,27718
9.25230,26102
9.25855,26030
9.26482,26175
9.27107,25358
9.27732,25855
9.28358,27893
9.28983,27730
9.29608,27184
9.30235,28274
9.30860,27665
9.31485,27026
9.32112,27943
9.32737,27226
9.33362,27497
9.33988,25973
9.34613,25780
9.35238,27271
9.35865,26658
9.36490,26560
9.37115,26912
9.37742,28309
9.38367,30456
9.38992,28483
9.39618,27074
9.40243,25643
9.40868,35382
9.41495,69998
9.42120,170526
9.42745,350639
9.43372,550862
9.43997,637763
9.44622,523269
9.45247,321892
9.45873,165543
9.46498,88000
9.47123,60508
9.47750,48709
9.48375,43188
9.49000,39924
9.49627,35216
9.50252,31116
9.50877,31343
9.51503,32130
9.52128,31844
9.52753,29105
9.53380,28637
9.54005,26722
9.54630,26770
9.55257,27966
9.55882,26463
9.56507,28697
9.57133,29594
9.57758,28901
9.58383,26514
9.59010,28098
9.59635,27830
9.60260,27939
9.60887,27379
9.61512,25440
9.62137,26105
9.62763,26116
9.63388,27125
9.64013,25389
9.64640,26310
9.65265,25061
9.65890,25094
9.66515,27850
9.67142,31312
9.67767,34687
9.68392,35051
9.69018,34988
9.69643,32422
9.70268,28468
9.70895,26505
9.71520,27112
9.72145,25051
9.72772,26526
9.73397,26146
9.74022,25433
9.74648,27667
9.75273,27986
9.75898,28265
9.76525,26302
9.77150,26334
9.77775,25366
9.78402,25183
9.79027,26631
9.79652,25200
9.80278,25553
9.80903,23976
9.81528,25714
9.82155,25001
9.82780,24698
9.83405,24489
9.84032,26991
9.84657,33348
9.85282,38860
9.85908,47065
9.86533,46998
9.87158,42339
9.87785,35202
9.88410,29733
9.89035,29744
9.89660,30383
9.90287,32024
9.90912,33880
9.91537,32599
9.92163,27837
9.92788,26176
9.93413,27587
9.94040,27889
9.94665,25097
9.95290,27483
9.95917,30377
9.96542,38922
9.97167,75375
9.97793,169654
9.98418,307228
9.99043,411239
9.99670,387732
10.00295,269157
10.00920,141569
10.01547,73665
10.02172,45968
10.02797,34503
10.03423,30813
10.04048,27254
10.04673,26437
10.05300,26079
10.05925,25661
10.06550,23536
10.07177,25456
10.07802,23507
10.08427,24065
10.09053,24078
10.09678,22884
10.10303,24767
10.10928,25347
10.11555,25634
10.12180,26297
10.12805,23682
10.13432,26160
10.14057,23976
10.14682,23898
10.15308,24714
10.15933,26908
10.16558,23515
10.17185,23126
10.17810,24169
10.18435,24410
10.19062,25791
10.19687,23972
10.20312,24005
10.20938,25019
10.21563,24515
10.22188,25354
10.22815,27892
10.23440,28396
10.24065,26703
10.24692,26472
10.25317,24917
10.25942,23962
10.26568,24902
10.27193,24127
10.27818,25129
10.28445,26368
10.29070,25650
10.29695,27415
10.30322,26229
10.30947,27205
10.31572,24488
10.32198,23523
10.32823,24967
10.33448,26732
10.34073,24925
10.34700,24584
10.35325,22553
10.35950,24195
10.36577,23203
10.37202,23730
10.37827,25196
10.38453,24093
10.39078,24992
10.39703,22383
10.40330,22606
10.40955,22502
10.41580,23827
10.42207,22515
10.42832,23657
10.43457,23559
10.44083,23442
10.44708,24128
10.45333,24684
10.45960,25063
10.46585,30405
10.47210,51124
10.47837,91190
10.48462,130635
10.49087,135089
10.49713,101768
10.50338,64733
10.50963,42841
10.51590,32030
10.52215,29271
10.52840,25752
10.53467,26101
10.54092,24801
10.54717,25843
10.55342,24088
10.55968,24254
10.56593,26006
10.57218,26406
10.57845,25416
10.58470,25825
10.59095,25473
10.59722,24320
10.60347,24521
10.60972,24083
10.61598,25804
10.62223,27880
10.62848,24240
10.63475,25717
10.64100,24194
10.64725,25077
10.65352,25936
10.65977,26385
10.66602,25389
10.67228,26857
10.67853,25726
10.68478,26290
10.69105,24292
10.69730,23932
10.70355,24489
10.70982,23465
10.71607,23467
10.72232,23236
10.72858,22959
10.73483,23157
10.74108,23371
10.74735,24805
10.75360,24113
10.75985,22992
10.76612,25167
10.77237,24696
10.77862,27412
10.78487,29599
10.79113,30100
10.79738,27868
10.80363,26446
10.80990,24102
10.81615,22987
10.82240,22918
10.82867,24335
10.83492,23433
10.84117,23675
10.84743,23496
10.85368,22918
10.85993,25193
10.86620,23314
10.87245,24622
10.87870,23150
10.88497,24078
10.89122,25774
10.89747,25696
10.90373,27652
10.90998,30034
10.91623,27673
10.92250,24459
10.92875,23342
10.93500,25452
10.94127,22735
10.94752,23119
10.95377,24668
10.96003,22411
10.96628,22913
10.97253,24167
10.97880,23884
10.98505,23616
10.99130,24132
10.99755,23938
11.00382,24637
11.01007,20713
11.01632,22029
11.02258,21761
11.02883,21612
11.03508,22450
11.04135,22032
11.04760,22745
11.05385,24884
11.06012,23577
11.06637,23089
11.07262,22979
11.07888,22999
11.08513,22644
11.09138,22869
11.09765,24291
11.10390,23583
11.11015,25146
11.11642,25196
11.12267,28471
11.12892,31315
11.13518,31564
11.14143,32133
11.14768,28619
11.15395,27085
11.16020,24574
11.16645,25902
11.17272,25873
11.17897,25369
11.18522,20953
11.19148,22675
11.19773,23179
11.20398,24773
11.21025,26725
11.21650,27155
11.22275,28186
11.22900,27323
11.23527,23633
11.24152,24693
11.24777,24037
11.25403,23388
11.26028,23868
11.26653,22917
11.27280,26243
11.27905,26686
11.28530,30219
11.29157,28731
11.29782,28013
11.30407,24544
11.31033,24850
11.31658,23280
11.32283,22225
11.32910,22278
11.33535,21621
11.34160,22240
11.34787,21123
11.35412,21273
11.36037,21863
11.36663,23455
11.37288,21517
11.37913,21364
11.38540,21975
11.39165,21776
11.39790,21467
11.40417,22308
11.41042,21082
11.41667,21251
11.42293,21965
11.42918,19690
11.43543,21664
11.44168,21726
11.44795,21707
11.45420,22374
11.46045,21830
11.46672,20991
11.47297,20957
11.47922,22630
11.48548,21635
11.49173,22224
11.49798,22540
11.50425,20709
11.51050,21275
11.51675,21961
11.52302,19926
11.52927,22026
11.53552,22285
11.54178,21637
11.54803,21869
11.55428,21057
11.56055,21951
11.56680,22003
11.57305,21708
11.57932,20928
11.58557,21114
11.59182,20967
11.59808,21257
11.60433,20987
11.61058,22278
11.61685,21332
11.62310,21409
11.62935,20846
11.63562,22225
11.64187,21390
11.64812,23795
11.65437,23890
11.66063,21677
11.66688,22552
11.67313,21711
11.67940,21147
11.68565,21307
11.69190,22271
11.69817,21545
11.70442,19627
11.71067,20687
11.71693,22333
11.72318,24597
11.72943,29580
11.73570,39896
11.74195,45293
11.74820,41170
11.75447,34286
11.76072,28772
11.76697,24748
11.77323,23317
11.77948,22615
11.78573,23588
11.79200,21557
11.79825,23978
11.80450,23130
11.81077,21305
11.81702,22625
11.82327,21926
11.82953,21883
11.83578,22119
11.84203,20752
11.84830,21557
11.85455,22634
11.86080,23378
11.86707,22176
11.87332,22094
11.87957,20761
11.88582,21802
11.89208,21127
11.89833,21704
11.90458,22485
11.91085,24289
11.91710,24176
11.92335,24465
11.92962,23030
11.93587,22290
11.94212,22587
11.94838,23167
11.95463,24783
11.96088,33724
11.96715,33856
11.97340,31443
11.97965,29193
11.98592,24796
11.99217,23686
11.99842,23569
12.00468,22856
12.01093,22385
12.01718,22506
12.02345,21805
12.02970,21536
12.03595,22085
12.04222,22268
12.04847,24283
12.05472,22334
12.06098,24142
12.06723,22727
12.07348,21049
12.07975,21366
12.08600,22725
12.09225,22744
12.09850,22764
12.10477,22236
12.11102,23242
12.11727,22136
12.12353,22265
12.12978,22546
12.13603,23963
12.14230,23146
12.14855,22563
12.15480,22851
12.16107,24040
12.16732,25482
12.17357,24646
12.17983,24541
12.18608,25675
12.19233,21409
12.19860,27913
12.20485,39031
12.21110,73712
12.21737,129326
12.22362,179827
12.22987,185627
12.23613,133726
12.24238,76204
12.24863,40625
12.25490,25525
12.26115,25268
12.26740,27689
12.27367,30124
12.27992,29040
12.28617,27094
12.29243,23959
12.29868,24369
12.30493,22387
12.31118,23346
12.31745,24004
12.32370,22698
12.32995,23342
12.33622,22961
12.34247,24168
12.34872,23038
12.35498,21180
12.36123,23850
12.36748,21798
12.37375,22160
12.38000,24193
12.38625,21748
12.39252,25698
12.39877,24559
12.40502,25592
12.41128,29447
12.41753,37057
12.42378,45356
12.43005,48524
12.43630,49894
12.44255,39505
12.44882,29617
12.45507,26601
12.46132,25014
12.46758,24002
12.47383,23138
12.48008,23508
12.48635,28805
12.49260,31561
12.49885,33587
12.50512,32948
12.51137,27183
12.51762,26144
12.52388,23620
12.53013,22417
12.53638,23743
12.54263,23790
12.54890,25691
12.55515,24091
12.56140,24393
12.56767,23534
12.57392,23730
12.58017,25870
12.58643,28017
12.59268,30154
12.59893,29083
12.60520,27060
12.61145,23449
12.61770,22232
12.62397,23028
12.63022,25955
12.63647,35818
12.64273,55086
12.64898,78591
12.65523,101101
12.66150,109472
12.66775,85359
12.67400,52509
12.68027,37910
12.68652,30347
12.69277,26510
12.69903,23726
12.70528,24204
12.71153,23651
12.71780,22538
12.72405,23451
12.73030,24810
12.73657,23845
12.74282,24124
12.74907,22838
12.75532,25642
12.76158,26685
12.76783,27479
12.77408,29313
12.78035,25587
12.78660,26538
12.79285,26416
12.79912,23183
12.80537,23545
12.81162,25558
12.81788,25449
12.82413,23508
12.83038,22928
12.83665,21808
12.84290,22465
12.84915,20636
12.85542,21144
12.86167,22956
12.86792,22955
12.87418,24056
12.88043,27552
12.88668,30409
12.89295,37840
12.89920,38309
12.90545,36634
12.91172,30914
12.91797,26640
12.92422,24176
12.93048,24153
12.93673,25752
12.94298,25766
12.94925,23048
12.95550,21193
12.96175,22780
12.96802,20923
12.97427,22005
12.98052,20478
12.98677,21670
12.99303,21224
12.99928,22624
13.00553,23425
13.01180,21608
13.01805,21312
13.02430,22443
13.03057,23502
13.03682,23565
13.04307,22332
13.04933,22408
13.05558,20667
13.06183,22693
13.06810,21253
13.07435,24588
13.08060,32249
13.08687,52486
13.09312,90236
13.09937,130761
13.10563,137434
13.11188,103513
13.11813,60042
13.12440,34503
13.13065,27243
13.13690,25063
13.14317,23490
13.14942,24314
13.15567,26385
13.16193,27147
13.16818,28988
13.17443,25895
13.18070,21168
13.18695,23296
13.19320,22108
13.19945,20299
13.20572,20172
13.21197,22609
13.21822,21277
13.22448,22748
13.23073,20958
13.23698,20724
13.24325,21549
13.24950,20497
13.25575,22080
13.26202,24619
13.26827,25578
13.27452,27348
13.28078,25064
13.28703,23679
13.29328,21896
13.29955,22854
13.30580,23522
13.31205,22045
13.31832,24409
13.32457,21870
13.33082,22559
13.33708,21690
13.34333,22086
13.34958,23080
13.35585,21702
13.36210,24154
13.36835,22757
13.37462,25318
13.38087,23932
13.38712,22481
13.39338,22610
13.39963,22404
13.40588,22424
13.41215,21131
13.41840,22074
13.42465,20795
13.43090,21036
13.43717,22380
13.44342,21266
13.44967,22360
13.45593,22557
13.46218,22518
13.46843,20804
13.47470,22177
13.48095,22251
13.48720,21589
13.49347,22395
13.49972,22744
13.50597,23118
13.51223,20981
13.51848,20445
13.52473,21526
13.53100,22257
13.53725,21703
13.54350,23202
13.54977,23326
13.55602,24152
13.56227,22677
13.56853,24582
13.57478,22729
13.58103,21461
13.58730,21255
13.59355,21530
13.59980,20146
13.60607,21162
13.61232,21117
13.61857,21906
13.62483,20623
13.63108,22869
13.63733,20088
13.64358,21168
13.64985,20288
13.65610,20478
13.66235,21124
13.66862,19862
13.67487,20473
13.68112,21148
13.68738,21112
13.69363,20843
13.69988,20682
13.70615,21022
13.71240,21843
13.71865,21375
13.72492,21161
13.73117,20910
13.73742,20109
13.74368,19589
13.74993,20739
13.75618,20997
13.76245,20090
13.76870,19985
13.77495,20641
13.78122,20724
13.78747,20731
13.79372,21232
13.79998,20823
13.80623,22486
13.81248,22322
13.81875,22133
13.82500,21908
13.83125,21119
13.83752,21105
13.84377,22075
13.85002,25712
13.85628,26934
13.86253,25541
13.86878,23283
13.87503,23590
13.88130,21074
13.88755,22134
13.89380,23914
13.90007,22768
13.90632,22809
13.91257,22767
13.91883,22292
13.92508,22648
13.93133,21551
13.93760,21885
13.94385,19699
13.95010,20231
13.95637,21475
13.96262,22049
13.96887,23170
13.97513,23742
13.98138,25138
13.98763,29130
13.99390,29316
14.00015,26630
14.00640,24442
14.01267,24275
14.01892,23541
14.02517,22368
14.03143,21042
14.03768,23933
14.04393,21902
14.05020,21890
14.05645,22522
14.06270,29449
14.06897,38241
14.07522,43872
14.08147,40622
14.08772,34245
14.09398,29737
14.10023,25885
14.10648,23602
14.11275,23030
14.11900,23502
14.12525,24678
14.13152,24677
14.13777,26232
14.14402,21675
14.15028,21861
14.15653,21255
14.16278,22954
14.16905,23575
14.17530,23263
14.18155,22998
14.18782,25601
14.19407,24016
14.20032,24876
14.20658,24521
14.21283,32397
14.21908,53301
14.22535,82953
14.23160,106967
14.23785,99467
14.24412,73264
14.25037,43493
14.25662,30418
14.26288,25215
14.26913,23892
14.27538,23566
14.28165,23317
14.28790,26412
14.29415,24237
14.30040,29058
14.30667,28668
14.31292,26712
14.31917,25812
14.32543,28646
14.33168,28986
14.33793,28717
14.34420,25578
14.35045,25339
14.35670,24445
14.36297,24394
14.36922,24554
14.37547,21698
14.38173,23354
14.38798,22630
14.39423,22806
14.40050,21374
14.40675,21434
14.41300,23915
14.41927,19878
14.42552,21327
14.43177,21654
14.43803,22962
14.44428,23648
14.45053,21494
14.45680,21468
14.46305,23284
14.46930,24188
14.47557,26480
14.48182,34331
14.48807,90488
14.49433,372362
14.50058,1819325
14.50683,5938011
14.51310,1.129218E+07
14.51935,1.549844E+07
14.52560,1.414932E+07
14.53185,7671670
14.53812,2400292
14.54437,495780
14.55062,148682
14.55688,86411
14.56313,72533
14.56938,64019
14.57565,60291
14.58190,60791
14.58815,59580
14.59442,60142
14.60067,58732
14.60692,51031
14.61318,47111
14.61943,41559
14.62568,39794
14.63195,36574
14.63820,36504
14.64445,37066
14.65072,34833
14.65697,34514
14.66322,37061
14.66948,34749
14.67573,35525
14.68198,32339
14.68825,32267
14.69450,31186
14.70075,32193
14.70702,32209
14.71327,34766
14.71952,33121
14.72578,35588
14.73203,37726
14.73828,40592
14.74453,42329
14.75080,40229
14.75705,34095
14.76330,33237
14.76957,30664
14.77582,30021
14.78207,28858
14.78833,29397
14.79458,29923
14.80083,30398
14.80710,27097
14.81335,27314
14.81960,26278
14.82587,28294
14.83212,26548
14.83837,27576
14.84463,27221
14.85088,27676
14.85713,28907
14.86340,26811
14.86965,27551
14.87590,26424
14.88217,28500
14.88842,26308
14.89467,27045
14.90093,26573
14.90718,26466
14.91343,26937
14.91970,26737
14.92595,28334
14.93220,26813
14.93847,26224
14.94472,28912
14.95097,30030
14.95722,29563
14.96348,29935
14.96973,32794
14.97598,32913
14.98225,33774
14.98850,35411
14.99475,32981
15.00102,27826
15.00727,25251
15.01352,24697
15.01978,25777
15.02603,27510
15.03228,26694
15.03855,26732
15.04480,26884
15.05105,26740
15.05732,25302
15.06357,26482
15.06982,26553
15.07608,28354
15.08233,26316
15.08858,26751
15.09485,26408
15.10110,26869
15.10735,27712
15.11362,27772
15.11987,27982
15.12612,28917
15.13238,28588
15.13863,29104
15.14488,30430
15.15115,28382
15.15740,27431
15.16365,31453
15.16992,29168
15.17617,28797
15.18242,31984
15.18867,32629
15.19493,33039
15.20118,32609
15.20743,30510
15.21370,32207
15.21995,28975
15.22620,29643
15.23247,28971
15.23872,29008
15.24497,27925
15.25123,27123
15.25748,27444
15.26373,27819
15.27000,27198
15.27625,28726
15.28250,30345
15.28877,29574
15.29502,29839
15.30127,28027
15.30753,29843
15.31378,32049
15.32003,32341
15.32630,31979
15.33255,30162
15.33880,29049
15.34507,28133
15.35132,28719
15.35757,26953
15.36383,27174
15.37008,25691
15.37633,27583
15.38260,28403
15.38885,27958
15.39510,27793
15.40135,29525
15.40762,28347
15.41387,29054
15.42012,28771
15.42638,28291
15.43263,27331
15.43888,29918
15.44515,29654
15.45140,30704
15.45765,31813
15.46392,28979
15.47017,28141
15.47642,29446
15.48268,28000
15.48893,28630
15.49518,28337
15.50145,30022
15.50770,26990
15.51395,30609
15.52022,27886
15.52647,29569
15.53272,29576
15.53898,28017
15.54523,28851
15.55148,30005
15.55775,29352
15.56400,26767
15.57025,27725
15.57652,26973
15.58277,28787
15.58902,25711
15.59528,26250
15.60153,28837
15.60778,27118
15.61405,28797
15.62030,28381
15.62655,27472
15.63280,28554
15.63907,26966
15.64532,25685
15.65157,24785
15.65783,22614
15.66408,25174
15.67033,24672
15.67660,23491
15.68285,23689
15.68910,24922
15.69537,25409
15.70162,25327
15.70787,28115
15.71413,27403
15.72038,24345
15.72663,23749
15.73290,23775
15.73915,22892
15.74540,23878
15.75167,23976
15.75792,23425
15.76417,24670
15.77043,24216
15.77668,23402
15.78293,24939
15.78920,22554
15.79545,24743
15.80170,25449
15.80797,24441
15.81422,25270
15.82047,26927
15.82673,27234
15.83298,28032
15.83923,25093
15.84548,25025
15.85175,23293
15.85800,23630
15.86425,23893
15.87052,24902
15.87677,23811
15.88302,22944
15.88928,24871
15.89553,22205
15.90178,22554
15.90805,24191
15.91430,24764
15.92055,22823
15.92682,22000
15.93307,23261
15.93932,23910
15.94558,28138
15.95183,34542
15.95808,49670
15.96435,71642
15.97060,85498
15.97685,75802
15.98312,54730
15.98937,35692
15.99562,25515
16.00188,25016
16.00813,23257
16.01438,22742
16.02065,23952
16.02690,22665
16.03315,24398
16.03942,26333
16.04567,24319
16.05192,24544
16.05818,23583
16.06443,24817
16.07068,25143
16.07693,25197
16.08320,27300
16.08945,25314
16.09570,24455
16.10197,24739
16.10822,23182
16.11447,23444
16.12073,22826
16.12698,23874
16.13323,25260
16.13950,23934
16.14575,24148
16.15200,23440
16.15827,24625
16.16452,23879
16.17077,24262
16.17703,26132
16.18328,28232
16.18953,38004
16.19580,49522
16.20205,56179
16.20830,49671
16.21457,39192
16.22082,28683
16.22707,25394
16.23333,25986
16.23958,26004
16.24583,25963
16.25210,26486
16.25835,25606
16.26460,24897
16.27087,25979
16.27712,23959
16.28337,24112
16.28962,23177
16.29588,23144
16.30213,24860
16.30838,24006
16.31465,24888
16.32090,24704
16.32715,22464
16.33342,24855
16.33967,24156
16.34592,24648
16.35218,24327
16.35843,23567
16.36468,24062
16.37095,24506
16.37720,23982
16.38345,24459
16.38972,24007
16.39597,25219
16.40222,24294
16.40848,23814
16.41473,25587
16.42098,25219
16.42725,27781
16.43350,28229
16.43975,30710
16.44602,35120
16.45227,37027
16.45852,33964
16.46478,30048
16.47103,28139
16.47728,26920
16.48355,26162
16.48980,26552
16.49605,26047
16.50232,24275
16.50857,27971
16.51482,32180
16.52107,37467
16.52733,39071
16.53358,35101
16.53983,29342
16.54610,27745
16.55235,26159
16.55860,25578
16.56487,24027
16.57112,23884
16.57737,25436
16.58363,26165
16.58988,26651
16.59613,24780
16.60240,27784
16.60865,28909
16.61490,26747
16.62117,29170
16.62742,31823
16.63367,33510
16.63993,32698
16.64618,31542
16.65243,29334
16.65870,31008
16.66495,33841
16.67120,40550
16.67747,50400
16.68372,51852
16.68997,47129
16.69623,36652
16.70248,29689
16.70873,26175
16.71500,26321
16.72125,26373
16.72750,25014
16.73375,24383
16.74002,25887
16.74627,25058
16.75252,27401
16.75878,32703
16.76503,44760
16.77128,75686
16.77755,114264
16.78380,132722
16.79005,116761
16.79632,93723
16.80257,78587
16.80882,68328
16.81508,56899
16.82133,51703
16.82758,51989
16.83385,47375
16.84010,40236
16.84635,36236
16.85262,32660
16.85887,33012
16.86512,44460
16.87138,61660
16.87763,87217
16.88388,105032
16.89015,104079
16.89640,82402
16.90265,56345
16.90892,37198
16.91517,36414
16.92142,38142
16.92768,38318
16.93393,36877
16.94018,36003
16.94643,40677
16.95270,47462
16.95895,54134
16.96520,53650
16.97147,44007
16.97772,37118
16.98397,32352
16.99023,29731
16.99648,28202
17.00273,29867
17.00900,32704
17.01525,44696
17.02150,113830
17.02777,360033
17.03402,1100395
17.04027,2763874
17.04653,4714872
17.05278,5306456
17.05903,4092467
17.06530,2258616
17.07155,816526
17.07780,244005
17.08407,95518
17.09032,56122
17.09657,45941
17.10283,41842
17.10908,39197
17.11533,38193
17.12160,38269
17.12785,40751
17.13410,45509
17.14037,54852
17.14662,82540
17.15287,128363
17.15913,177168
17.16538,180193
17.17163,130384
17.17788,80409
17.18415,51268
17.19040,41961
17.19665,41161
17.20292,40599
17.20917,51888
17.21542,104728
17.22168,239028
17.22793,503197
17.23418,749581
17.24045,842232
17.24670,587875
17.25295,300170
17.25922,116744
17.26547,52965
17.27172,36046
17.27798,33268
17.28423,32126
17.29048,30908
17.29675,32578
17.30300,35229
17.30925,37599
17.31552,33142
17.32177,30621
17.32802,28140
17.33428,28070
17.34053,26054
17.34678,24866
17.35305,25982
17.35930,26031
17.36555,26756
17.37182,27308
17.37807,27521
17.38432,29534
17.39057,30939
17.39683,30273
17.40308,29103
17.40933,27901
17.41560,26814
17.42185,27187
17.42810,26879
17.43437,32600
17.44062,38840
17.44687,46416
17.45313,54078
17.45938,47492
17.46563,38966
17.47190,30339
17.47815,23823
17.48440,25048
17.49067,25137
17.49692,28880
17.50317,31066
17.50943,44739
17.51568,59976
17.52193,72146
17.52820,66361
17.53445,51634
17.54070,34393
17.54697,26813
17.55322,24260
17.55947,24892
17.56573,25517
17.57198,28013
17.57823,27388
17.58450,26555
17.59075,26203
17.59700,24569
17.60325,24921
17.60952,23789
17.61577,24849
17.62202,23023
17.62828,25058
17.63453,24017
17.64078,22705
17.64705,22820
17.65330,21463
17.65955,22191
17.66582,21960
17.67207,22854
17.67832,23828
17.68458,23139
17.69083,22137
17.69708,21137
17.70335,22281
17.70960,22310
17.71585,22115
17.72212,21710
17.72837,21844
17.73462,22236
17.74088,21381
17.74713,21569
17.75338,23108
17.75965,22876
17.76590,23191
17.77215,24793
17.77842,24916
17.78467,24203
17.79092,24076
17.79718,26526
17.80343,29955
17.80968,36077
17.81595,37239
17.82220,35760
17.82845,43818
17.83470,83729
17.84097,155878
17.84722,255700
17.85347,301819
17.85973,239120
17.86598,142465
17.87223,85125
17.87850,57879
17.88475,47986
17.89100,43311
17.89727,42632
17.90352,42631
17.90977,43356
17.91603,44754
17.92228,39957
17.92853,33992
17.93480,31893
17.94105,30784
17.94730,30175
17.95357,31188
17.95982,30202
17.96607,29703
17.97233,29296
17.97858,29177
17.98483,28581
17.99110,29044
17.99735,30618
18.00360,27850
18.00987,29446
18.01612,26431
18.02237,28866
18.02863,25482
18.03488,25929
18.04113,26019
18.04738,25425
18.05365,24706
18.05990,25851
18.06615,24449
18.07242,24655
18.07867,24245
18.08492,23682
18.09118,25187
18.09743,24359
18.10368,24739
18.10995,26317
18.11620,28095
18.12245,39720
18.12872,77427
18.13497,147595
18.14122,251509
18.14748,283517
18.15373,205115
18.15998,109723
18.16625,52368
18.17250,31939
18.17875,29142
18.18502,26689
18.19127,25597
18.19752,25903
18.20378,25424
18.21003,24114
18.21628,24354
18.22255,25128
18.22880,23859
18.23505,24768
18.24132,24292
18.24757,26074
18.25382,25273
18.26008,26284
18.26633,26724
18.27258,27794
18.27883,25831
18.28510,26772
18.29135,25896
18.29760,26995
18.30387,27892
18.31012,25623
18.31637,26130
18.32263,26266
18.32888,24938
18.33513,22185
18.34140,22897
18.34765,23047
18.35390,23841
18.36017,23147
18.36642,22791
18.37267,22571
18.37893,21272
18.38518,21904
18.39143,22356
18.39770,23877
18.40395,23309
18.41020,22389
18.41647,22093
18.42272,23161
18.42897,21962
18.43523,22048
18.44148,22594
18.44773,21922
18.45400,21694
18.46025,22687
18.46650,23717
18.47277,23769
18.47902,21755
18.48527,23751
18.49152,22271
18.49778,21710
18.50403,22453
18.51028,23462
18.51655,21606
18.52280,22871
18.52905,22614
18.53532,24042
18.54157,21850
18.54782,22798
18.55408,22171
18.56033,24299
18.56658,22734
18.57285,21437
18.57910,22613
18.58535,22386
18.59162,21532
18.59787,20990
18.60412,21308
18.61038,22221
18.61663,23360
18.62288,23063
18.62915,23153
18.63540,22506
18.64165,21635
18.64792,22363
18.65417,22280
18.66042,23942
18.66668,23208
18.67293,21642
18.67918,22801
18.68545,22695
18.69170,21027
18.69795,21371
18.70422,21881
18.71047,21298
18.71672,23726
18.72297,22315
18.72923,21382
18.73548,22579
18.74173,22338
18.74800,22025
18.75425,21849
18.76050,22641
18.76677,23062
18.77302,24429
18.77927,23616
18.78553,23610
18.79178,22313
18.79803,23482
18.80430,23201
18.81055,21486
18.81680,24658
18.82307,23334
18.82932,24456
18.83557,24593
18.84183,24053
18.84808,24858
18.85433,23571
18.86060,27569
18.86685,36399
18.87310,55532
18.87937,83794
18.88562,115362
18.89187,141347
18.89813,157266
18.90438,135056
18.91063,91919
18.91690,56513
18.92315,38070
18.92940,36866
18.93565,49219
18.94192,57661
18.94817,62601
18.95442,52620
18.96068,39589
18.96693,30189
18.97318,26357
18.97945,22325
18.98570,23652
18.99195,23390
18.99822,23378
19.00447,22480
19.01072,21780
19.01698,22770
19.02323,23009
19.02948,23032
19.03575,22429
19.04200,23755
19.04825,23905
19.05452,26617
19.06077,23667
19.06702,23039
19.07328,22940
19.07953,22508
19.08578,21737
19.09205,22264
19.09830,22218
19.10455,20226
19.11082,21310
19.11707,19813
19.12332,21817
19.12958,22298
19.13583,21309
19.14208,22841
19.14835,22190
19.15460,23535
19.16085,25009
19.16710,22931
19.17337,21395
19.17962,22203
19.18587,22707
19.19213,22670
19.19838,21701
19.20463,21619
19.21090,21013
19.21715,20417
19.22340,22220
19.22967,21114
19.23592,20672
19.24217,21742
19.24843,21777
19.25468,21428
19.26093,20946
19.26720,21022
19.27345,20050
19.27970,21097
19.28597,22366
19.29222,21732
19.29847,20536
19.30473,22187
19.31098,20862
19.31723,22475
19.32350,20716
19.32975,19471
19.33600,21920
19.34227,22371
19.34852,21856
19.35477,22170
19.36103,21208
19.36728,21033
19.37353,21889
19.37978,22643
19.38605,20911
19.39230,22067
19.39855,21908
19.40482,23715
19.41107,21793
19.41732,23515
19.42358,22957
19.42983,21177
19.43608,23451
19.44235,21659
19.44860,21349
19.45485,22104
19.46112,22833
19.46737,22353
19.47362,23879
19.47988,23884
19.48613,24094
19.49238,22060
19.49865,22923
19.50490,27161
19.51115,27390
19.51742,31199
19.52367,28700
19.52992,24401
19.53618,23405
19.54243,22706
19.54868,20535
19.55495,22999
19.56120,22786
19.56745,21729
19.57372,20341
19.57997,22049
19.58622,21081
19.59247,21715
19.59873,21337
19.60498,21811
19.61123,20489
19.61750,21535
19.62375,21099
19.63000,20866
19.63627,20858
19.64252,19903
19.64877,22026
19.65503,21714
19.66128,19439
19.66753,20318
19.67380,21380
19.68005,20393
19.68630,21310
19.69257,22513
19.69882,25074
19.70507,29166
19.71133,29178
19.71758,29780
19.72383,28312
19.73010,23471
19.73635,21176
19.74260,21506
19.74887,22226
19.75512,22735
19.76137,22566
19.76763,22352
19.77388,21493
19.78013,22800
19.78640,21102
19.79265,22316
19.79890,21836
19.80517,20849
19.81142,22723
19.81767,22549
19.82392,21833
19.83018,23926
19.83643,22027
19.84268,22625
19.84895,21693
19.85520,20935
19.86145,20878
19.86772,22202
19.87397,22272
19.88022,21640
19.88648,21816
19.89273,21998
19.89898,24013
19.90525,33491
19.91150,67713
19.91775,147999
19.92402,325305
19.93027,481760
19.93652,460818
19.94278,277986
19.94903,126056
19.95528,55361
19.96155,36016
19.96780,29909
19.97405,30024
19.98032,26857
19.98657,26872
19.99282,26054
19.99908,23861
20.00533,25370
20.01158,23881
20.01785,23089
20.02410,25163
20.03035,24716
20.03660,23732
20.04287,23800
20.04912,22464
20.05537,23043
20.06163,23638
20.06788,23856
20.07413,23001
20.08040,23632
20.08665,24347
20.09290,23973
20.09917,24210
20.10542,23572
20.11167,23397
20.11793,22416
20.12418,25170
20.13043,24075
20.13670,24715
20.14295,24759
20.14920,23269
20.15547,23609
20.16172,24495
20.16797,26150
20.17423,38101
20.18048,61067
20.18673,95281
20.19300,133578
20.19925,127688
20.20550,98495
20.21177,61104
20.21802,45821
20.22427,47401
20.23053,57742
20.23678,64583
20.24303,61428
20.24928,51243
20.25555,36345
20.26180,28719
20.26805,26621
20.27432,25370
20.28057,23566
20.28682,23540
20.29308,25403
20.29933,23477
20.30558,23916
20.31185,25571
20.31810,23409
20.32435,24931
20.33062,22772
20.33687,24672
20.34312,25844
20.34938,25246
20.35563,26774
20.36188,28057
20.36815,31473
20.37440,33209
20.38065,28941
20.38692,28105
20.39317,25853
20.39942,24551
20.40568,22971
20.41193,24656
20.41818,23417
20.42445,22320
20.43070,24132
20.43695,23501
20.44322,23841
20.44947,24844
20.45572,23686
20.46198,23906
20.46823,23384
20.47448,24117
20.48073,24081
20.48700,22951
20.49325,22653
20.49950,23765
20.50577,23252
20.51202,22389
20.51827,22142
20.52453,22416
20.53078,23384
20.53703,24870
20.54330,24868
20.54955,23931
20.55580,23191
20.56207,24027
20.56832,23737
20.57457,25304
20.58083,24866
20.58708,24516
20.59333,22913
20.59960,22486
20.60585,22769
20.61210,23620
20.61837,23295
20.62462,23213
20.63087,22885
20.63713,23588
20.64338,23477
20.64963,23686
20.65590,22144
20.66215,23208
20.66840,23463
20.67467,23202
20.68092,21444
20.68717,23133
20.69342,23433
20.69968,22600
20.70593,22200
20.71218,23793
20.71845,23404
20.72470,22619
20.73095,22391
20.73722,23477
20.74347,22504
20.74972,24066
20.75598,22547
20.76223,23374
20.76848,24180
20.77475,25323
20.78100,29053
20.78725,30035
20.79352,30852
20.79977,27903
20.80602,28203
20.81228,24011
20.81853,22084
20.82478,23242
20.83105,24091
20.83730,22242
20.84355,24680
20.84982,23395
20.85607,22700
20.86232,23233
20.86858,23209
20.87483,23256
20.88108,23455
20.88735,23920
20.89360,23499
20.89985,22450
20.90612,23198
20.91237,24221
20.91862,22337
20.92487,21921
20.93113,23010
20.93738,21689
20.94363,25425
20.94990,22875
20.95615,23305
20.96240,22036
20.96867,22674
20.97492,22411
20.98117,22709
20.98743,24521
20.99368,23935
20.99993,22339
21.00620,22112
21.01245,22149
21.01870,24195
21.02497,24973
21.03122,28578
21.03747,30940
21.04373,28935
21.04998,28161
21.05623,27252
21.06250,24616
21.06875,23237
21.07500,22731
21.08127,23485
21.08752,21765
21.09377,22857
21.10003,23128
21.10628,24279
21.11253,26925
21.11880,25222
21.12505,25477
21.13130,23939
21.13755,22959
21.14382,22430
21.15007,23165
21.15632,22621
21.16258,21805
21.16883,22024
21.17508,24060
21.18135,23021
21.18760,22664
21.19385,24337
21.20012,23644
21.20637,23822
21.21262,23250
21.21888,25431
21.22513,23762
21.23138,23387
21.23765,23577
21.24390,22984
21.25015,21686
21.25642,22388
21.26267,23483
21.26892,22808
21.27518,23000
21.28143,23107
21.28768,22888
21.29395,23298
21.30020,23603
21.30645,22994
21.31272,21691
21.31897,23108
21.32522,23366
21.33148,22662
21.33773,25250
21.34398,25877
21.35025,28765
21.35650,28774
21.36275,25428
21.36900,27115
21.37527,24413
21.38152,25708
21.38777,25047
21.39403,25346
21.40028,25294
21.40653,29288
21.41280,33199
21.41905,41294
21.42530,50567
21.43157,50950
21.43782,51780
21.44407,41299
21.45033,32334
21.45658,26141
21.46283,23750
21.46910,25438
21.47535,24545
21.48160,23321
21.48787,23630
21.49412,23732
21.50037,24438
21.50663,23538
21.51288,24280
21.51913,24114
21.52540,23248
21.53165,22930
21.53790,22539
21.54417,23693
21.55042,23978
21.55667,23637
21.56293,24093
21.56918,24110
21.57543,26035
21.58168,24809
21.58795,22651
21.59420,24808
21.60045,23207
21.60672,23139
21.61297,23983
21.61922,22073
21.62548,24148
21.63173,24243
21.63798,25132
21.64425,24981
21.65050,23763
21.65675,23584
21.66302,25374
21.66927,25461
21.67552,26208
21.68178,25253
21.68803,24056
21.69428,24945
21.70055,23623
21.70680,24044
21.71305,24617
21.71932,23505
21.72557,23232
21.73182,23206
21.73808,24370
21.74433,23311
21.75058,22955
21.75685,22892
21.76310,23970
21.76935,27067
21.77562,30544
21.78187,31842
21.78812,35164
21.79438,38385
21.80063,30424
21.80688,27527
21.81313,25886
21.81940,23858
21.82565,23857
21.83190,24798
21.83817,24664
21.84442,23487
21.85067,24403
21.85693,23889
21.86318,24577
21.86943,23569
21.87570,25649
21.88195,24175
21.88820,24131
21.89447,23309
21.90072,25157
21.90697,24265
21.91323,24617
21.91948,22992
21.92573,23555
21.93200,23680
21.93825,24320
21.94450,26121
21.95077,24509
21.95702,24104
21.96327,27605
21.96953,30546
21.97578,32722
21.98203,30909
21.98830,28610
21.99455,28137
22.00080,25763
22.00707,25230
22.01332,26315
22.01957,23677
22.02582,25259
22.03208,25219
22.03833,24241
22.04458,24043
22.05085,25493
22.05710,25524
22.06335,25589
22.06962,25169
22.07587,24311
22.08212,25529
22.08838,23733
22.09463,24479
22.10088,24122
22.10715,24928
22.11340,24959
22.11965,25453
22.12592,24445
22.13217,22086
22.13842,24134
22.14468,25772
22.15093,23905
22.15718,23468
22.16345,23403
22.16970,25396
22.17595,24049
22.18222,24628
22.18847,24671
22.19472,23659
22.20098,23258
22.20723,23570
22.21348,25295
22.21975,26427
22.22600,24493
22.23225,24400
22.23850,24818
22.24477,24403
22.25102,25839
22.25727,23601
22.26353,23602
22.26978,24533
22.27603,26088
22.28230,25147
22.28855,25173
22.29480,24538
22.30107,23230
22.30732,25651
22.31357,26499
22.31983,24845
22.32608,24057
22.33233,24868
22.33860,24112
22.34485,24245
22.35110,25250
22.35737,26784
22.36362,30112
22.36987,29400
22.37613,27503
22.38238,27391
22.38863,26781
22.39490,26585
22.40115,24819
22.40740,24186
22.41367,25072
22.41992,25993
22.42617,24135
22.43243,25800
22.43868,25701
22.44493,25065
22.45120,26391
22.45745,25897
22.46370,27787
22.46995,25754
22.47622,26743
22.48247,25335
22.48872,26275
22.49498,26289
22.50123,25094
22.50748,25380
22.51375,24942
22.52000,26717
22.52625,28841
22.53252,37842
22.53877,50996
22.54502,68929
22.55128,78311
22.55753,73796
22.56378,62318
22.57005,51782
22.57630,44638
22.58255,38317
22.58882,33457
22.59507,29050
22.60132,28084
22.60758,26479
22.61383,26554
22.62008,27219
22.62635,28494
22.63260,32300
22.63885,36605
22.64512,36925
22.65137,41931
22.65762,42157
22.66388,45048
22.67013,49081
22.67638,49633
22.68263,45296
22.68890,37457
22.69515,29347
22.70140,29184
22.70767,28502
22.71392,30777
22.72017,31980
22.72643,32720
22.73268,33423
22.73893,30753
22.74520,29576
22.75145,28010
22.75770,26585
22.76397,24943
22.77022,25358
22.77647,27131
22.78273,30078
22.78898,41008
22.79523,60145
22.80150,81480
22.80775,91645
22.81400,86068
22.82027,64770
22.82652,44788
22.83277,32023
22.83903,29965
22.84528,28673
22.85153,29027
22.85780,29588
22.86405,29869
22.87030,28783
22.87657,27180
22.88282,27067
22.88907,28182
22.89532,29475
22.90158,28382
22.90783,29234
22.91408,28192
22.92035,26798
22.92660,27175
22.93285,30331
22.93912,28612
22.94537,29025
22.95162,27255
22.95788,28500
22.96413,26671
22.97038,28658
22.97665,28979
22.98290,27550
22.98915,28523
22.99542,27237
23.00167,27324
23.00792,28241
23.01418,28278
23.02043,27134
23.02668,25698
23.03295,26946
23.03920,28407
23.04545,29267
23.05172,28784
23.05797,29008
23.06422,28770
23.07048,31390
23.07673,31993
23.08298,33327
23.08925,30818
23.09550,30476
23.10175,30115
23.10802,28060
23.11427,28417
23.12052,27917
23.12677,28500
23.13303,29078
23.13928,26479
23.14553,28766
23.15180,29247
23.15805,27386
23.16430,27629
23.17057,27636
23.17682,28842
23.18307,28336
23.18933,28441
23.19558,26856
23.20183,27833
23.20810,28000
23.21435,27372
23.22060,30240
23.22687,27866
23.23312,28425
23.23937,29273
23.24563,27785
23.25188,29399
23.25813,27422
23.26440,28010
23.27065,28574
23.27690,27795
23.28317,29883
23.28942,28963
23.29567,27937
23.30193,29295
23.30818,28011
23.31443,28493
23.32070,29329
23.32695,29528
23.33320,28707
23.33945,27105
23.34572,28373
23.35197,27303
23.35822,27124
23.36448,29757
23.37073,29252
23.37698,29852
23.38325,30801
23.38950,27968
23.39575,29737
23.40202,31094
23.40827,31274
23.41452,31193
23.42078,32512
23.42703,30400
23.43328,31690
23.43955,28941
23.44580,28625
23.45205,28611
23.45832,31195
23.46457,30038
23.47082,31723
23.47708,29660
23.48333,30245
23.48958,29141
23.49585,29340
23.50210,29153
23.50835,29489
23.51462,31363
23.52087,29932
23.52712,31854
23.53338,30215
23.53963,29574
23.54588,29454
23.55215,28353
23.55840,29366
23.56465,30488
23.57090,29774
23.57717,33339
23.58342,38007
23.58967,43366
23.59593,48884
23.60218,51364
23.60843,49089
23.61470,43938
23.62095,35753
23.62720,33759
23.63347,33426
23.63972,32267
23.64597,29688
23.65223,31338
23.65848,30758
23.66473,32280
23.67100,30263
23.67725,30334
23.68350,30493
23.68977,29055
23.69602,30317
23.70227,30087
23.70853,29710
23.71478,27812
23.72103,30586
23.72730,30326
23.73355,31636
23.73980,30942
23.74607,30524
23.75232,28860
23.75857,31988
23.76483,30085
23.77108,31030
23.77733,29491
23.78358,30892
23.78985,30198
23.79610,31279
23.80235,31319
23.80862,30491
23.81487,29708
23.82112,30606
23.82738,32227
23.83363,30564
23.83988,31241
23.84615,30015
23.85240,31331
23.85865,31344
23.86492,30341
23.87117,32849
23.87742,31886
23.88368,31368
23.88993,32502
23.89618,30075
23.90245,32025
23.90870,32003
23.91495,29952
23.92122,30288
23.92747,30811
23.93372,32398
23.93998,34139
23.94623,41826
23.95248,70553
23.95875,110807
23.96500,151296
23.97125,168457
23.97752,164037
23.98377,119026
23.99002,80849
23.99628,59902
24.00253,50497
24.00878,47418
24.01503,42015
24.02130,37786
24.02755,36575
24.03380,34100
24.04007,33906
24.04632,37327
24.05257,38010
24.05883,47560
24.06508,57902
24.07133,64247
24.07760,65969
24.08385,56751
24.09010,50980
24.09637,43676
24.10262,39725
24.10887,40447
24.11513,40436
24.12138,42305
24.12763,40018
24.13390,38475
24.14015,36507
24.14640,37406
24.15267,38011
24.15892,36542
24.16517,36905
24.17143,37563
24.17768,37583
24.18393,36441
24.19020,42569
24.19645,69024
24.20270,146288
24.20897,304132
24.21522,506971
24.22147,690862
24.22772,671306
24.23398,451537
24.24023,247432
24.24648,134336
24.25275,85239
24.25900,62354
24.26525,55100
24.27152,50731
24.27777,48828
24.28402,44773
24.29028,44697
24.29653,42512
24.30278,44947
24.30905,42011
24.31530,42048
24.32155,42853
24.32782,42429
24.33407,41193
24.34032,43988
24.34658,44568
24.35283,46115
24.35908,46496
24.36535,46722
24.37160,44579
24.37785,41484
24.38412,42383
24.39037,39537
24.39662,40495
24.40288,39534
24.40913,41210
24.41538,42924
24.42165,40723
24.42790,42551
24.43415,43273
24.44042,43429
24.44667,41562
24.45292,40649
24.45917,39357
24.46543,41079
24.47168,38848
24.47793,41258
24.48420,40209
24.49045,42191
24.49670,40605
24.50297,38594
24.50922,38925
24.51547,42185
24.52173,42555
24.52798,40816
24.53423,41660
24.54050,40046
24.54675,39342
24.55300,39336
24.55927,39639
24.56552,40301
24.57177,45695
24.57803,48075
24.58428,48902
24.59053,50469
24.59680,46798
24.60305,44681
24.60930,43167
24.61557,41452
24.62182,41944
24.62807,45893
24.63433,45250
24.64058,44722
24.64683,44552
24.65310,44737
24.65935,42218
24.66560,39606
24.67185,37405
24.67812,39456
24.68437,39351
24.69062,40584
24.69688,38284
24.70313,39700
24.70938,40367
24.71565,38090
24.72190,40659
24.72815,40863
24.73442,41182
24.74067,42104
24.74692,42705
24.75318,41331
24.75943,42450
24.76568,40273
24.77195,41615
24.77820,43310
24.78445,38536
24.79072,38394
24.79697,40471
24.80322,41662
24.80948,41457
24.81573,41904
24.82198,37881
24.82825,39271
24.83450,41589
24.84075,39587
24.84702,39096
24.85327,41636
24.85952,41512
24.86578,41003
24.87203,41302
24.87828,41069
24.88453,45235
24.89080,41380
24.89705,43117
24.90330,43908
24.90957,42275
24.91582,41028
24.92207,42263
24.92833,42698
24.93458,41704
24.94083,42873
24.94710,43140
24.95335,43184
24.95960,44621
24.96587,40889
24.97212,43239
24.97837,43242
24.98463,41323
24.99088,42403
24.99713,41884
25.00340,41203
25.00965,44936
25.01590,41567
25.02217,42925
25.02842,43866
25.03467,42431
25.04093,43858
25.04718,44640
25.05343,42827
25.05970,41489
25.06595,43014
25.07220,41806
25.07847,44528
25.08472,46300
25.09097,44997
25.09723,44043
25.10348,42248
25.10973,44099
25.11598,45103
25.12225,44466
25.12850,44809
25.13475,44023
25.14102,44081
25.14727,43946
25.15352,42837
25.15978,44502
25.16603,43003
25.17228,43962
25.17855,43147
25.18480,43185
25.19105,44665
25.19732,43827
25.20357,42801
25.20982,43935
25.21608,42320
25.22233,46408
25.22858,45665
25.23485,43355
25.24110,44405
25.24735,44341
25.25362,45727
25.25987,45265
25.26612,43175
25.27238,44432
25.27863,43890
25.28488,47669
25.29115,45771
25.29740,45903
25.30365,45652
25.30992,45734
25.31617,46018
25.32242,45662
25.32867,46164
25.33493,46841
25.34118,46686
25.34743,46978
25.35370,45690
25.35995,45798
25.36620,45340
25.37247,46449
25.37872,48129
25.38497,49619
25.39123,57379
25.39748,69330
25.40373,83999
25.41000,95059
25.41625,94102
25.42250,82988
25.42877,67392
25.43502,59955
25.44127,51831
25.44753,51606
25.45378,49927
25.46003,51612
25.46630,49028
25.47255,48924
25.47880,51049
25.48507,49626
25.49132,53633
25.49757,51624
25.50383,51834
25.51008,49727
25.51633,51628
25.52260,52140
25.52885,49314
25.53510,50996
25.54135,51452
25.54762,51052
25.55387,49072
25.56012,50598
25.56638,50459
25.57263,54417
25.57888,50460
25.58515,49546
25.59140,50484
25.59765,50979
25.60392,51537
25.61017,50634
25.61642,53468
25.62268,49693
25.62893,53609
25.63518,53830
25.64145,51742
25.64770,49993
25.65395,50567
25.66022,52128
25.66647,50449
25.67272,51158
25.67898,51698
25.68523,51693
25.69148,50886
25.69775,52452
25.70400,52832
25.71025,50897
25.71652,53047
25.72277,50800
25.72902,49132
25.73528,52658
25.74153,53693
25.74778,53450
25.75405,53940
25.76030,52087
25.76655,52241
25.77280,54737
25.77907,52795
25.78532,53618
25.79157,51541
25.79783,53843
25.80408,54515
25.81033,55095
25.81660,53864
25.82285,53471
25.82910,53582
25.83537,57522
25.84162,55007
25.84787,53606
25.85413,57787
25.86038,53464
25.86663,53914
25.87290,57022
25.87915,52724
25.88540,52510
25.89167,52377
25.89792,53839
25.90417,54416
25.91043,54650
25.91668,55829
25.92293,55747
25.92920,55772
25.93545,55794
25.94170,55296
25.94797,55913
25.95422,54674
25.96047,55070
25.96673,56032
25.97298,57228
25.97923,55091
25.98548,55742
25.99175,58647
25.99800,54610
26.00425,56319
26.01052,59902
26.01677,57561
26.02302,56879
26.02928,59074
26.03553,56975
26.04178,56326
26.04805,56921
26.05430,59258
26.06055,56553
26.06682,57812
26.07307,59738
26.07932,60001
26.08558,58512
26.09183,58890
26.09808,62335
26.10435,60141
26.11060,59248
26.11685,60718
26.12312,58535
26.12937,58194
26.13562,60650
26.14188,60262
26.14813,60925
26.15438,62948
26.16065,61864
26.16690,60524
26.17315,59531
26.17942,59840
26.18567,59323
26.19192,62028
26.19818,62761
26.20443,63308
26.21068,59211
26.21693,61476
26.22320,61192
26.22945,62216
26.23570,62946
26.24197,61663
26.24822,64998
26.25447,63112
26.26073,62736
26.26698,66326
26.27323,63755
26.27950,63079
26.28575,62496
26.29200,61414
26.29827,64266
26.30452,64530
26.31077,67207
26.31703,64536
26.32328,63052
26.32953,62566
26.33580,67058
26.34205,64633
26.34830,64093
26.35457,66953
26.36082,65918
26.36707,66993
26.37333,65274
26.37958,63778
26.38583,63440
26.39210,66006
26.39835,64261
26.40460,68597
26.41087,68854
26.41712,65960
26.42337,65983
26.42962,63471
26.43588,69533
26.44213,69369
26.44838,69223
26.45465,66321
26.46090,65602
26.46715,66508
26.47342,65547
26.47967,67650
26.48592,68673
26.49218,68500
26.49843,70099
26.50468,67814
26.51095,69633
26.51720,69265
26.52345,71697
26.52972,68618
26.53597,69758
26.54222,67830
26.54848,68914
26.55473,70372
26.56098,71618
26.56725,70160
26.57350,71986
26.57975,72051
26.58602,72069
26.59227,73358
26.59852,68379
26.60478,71327
26.61103,71674
26.61728,70222
26.62355,72572
26.62980,71867
26.63605,74100
26.64232,75096
26.64857,84766
26.65482,98577
26.66107,120885
26.66733,129839
26.67358,126676
26.67983,107187
26.68610,96333
26.69235,82015
26.69860,84571
26.70487,78084
26.71112,82843
26.71737,79330
26.72363,79415
26.72988,77918
26.73613,76622
26.74240,80794
26.74865,79046
26.75490,77616
26.76117,79864
26.76742,82131
26.77367,79566
26.77993,80628
26.78618,79130
26.79243,78781
26.79870,79231
26.80495,79265
26.81120,81375
26.81747,80592
26.82372,80291
26.82997,81002
26.83623,80120
26.84248,81886
26.84873,83319
26.85500,82757
26.86125,79002
26.86750,79783
26.87375,83409
26.88002,83090
26.88627,84992
26.89252,83179
26.89878,88096
26.90503,97839
26.91128,116487
26.91755,131732
26.92380,144682
26.93005,131625
26.93632,117734
26.94257,99290
26.94882,92068
26.95508,92069
26.96133,88429
26.96758,89247
26.97385,86724
26.98010,85415
26.98635,87900
26.99262,88700
26.99887,86591
27.00512,86578
27.01138,89479
27.01763,87125
27.02388,92420
27.03015,91804
27.03640,89077
27.04265,91793
27.04892,88620
27.05517,89495
27.06142,87245
27.06768,88921
27.07393,87858
27.08018,88873
27.08645,90539
27.09270,91922
27.09895,90740
27.10520,95535
27.11147,92630
27.11772,89880
27.12397,89251
27.13023,93215
27.13648,92166
27.14273,94110
27.14900,91252
27.15525,92735
27.16150,95243
27.16777,94703
27.17402,93613
27.18027,94835
27.18653,98045
27.19278,95683
27.19903,94814
27.20530,96108
27.21155,95429
27.21780,97281
27.22407,96002
27.23032,99197
27.23657,97509
27.24283,98628
27.24908,98861
27.25533,95926
27.26160,97519
27.26785,100066
27.27410,101800
27.28037,100147
27.28662,99541
27.29287,99727
27.29913,99871
27.30538,100578
27.31163,100691
27.31788,103621
27.32415,100745
27.33040,103677
27.33665,99354
27.34292,103501
27.34917,102065
27.35542,100677
27.36168,100102
27.36793,104616
27.37418,100644
27.38045,101161
27.38670,100341
27.39295,101959
27.39922,106383
27.40547,106585
27.41172,104783
27.41798,106506
27.42423,104800
27.43048,102984
27.43675,104482
27.44300,104003
27.44925,104864
27.45552,105108
27.46177,106002
27.46802,104767
27.47428,102185
27.48053,105691
27.48678,107239
27.49305,103213
27.49930,106195
27.50555,108474
27.51182,107318
27.51807,105763
27.52432,113302
27.53057,110735
27.53683,110119
27.54308,110085
27.54933,110714
27.55560,107778
27.56185,108547
27.56810,111054
27.57437,111879
27.58062,111443
27.58687,111941
27.59313,113824
27.59938,111641
27.60563,108914
27.61190,108430
27.61815,110397
27.62440,111427
27.63067,110506
27.63692,112858
27.64317,110528
27.64943,119297
27.65568,113138
27.66193,114875
27.66820,115080
27.67445,118585
27.68070,118331
27.68697,119585
27.69322,115584
27.69947,118429
27.70573,117230
27.71198,114189
27.71823,117298
27.72450,118156
27.73075,115746
27.73700,118551
27.74327,114064
27.74952,122400
27.75577,117310
27.76202,121138
27.76828,116144
27.77453,119924
27.78078,120462
27.78705,117417
27.79330,120454
27.79955,122638
27.80582,124942
27.81207,119900
27.81832,120208
27.82458,121843
27.83083,123241
27.83708,118392
27.84335,127258
27.84960,132488
27.85585,142271
27.86212,150026
27.86837,156029
27.87462,147109
27.88088,140973
27.88713,131610
27.89338,124574
27.89965,127307
27.90590,128864
27.91215,130399
27.91842,128409
27.92467,128143
27.93092,129373
27.93718,128096
27.94343,128057
27.94968,126910
27.95595,125340
27.96220,125277
27.96845,129932
27.97470,129595
27.98097,128217
27.98722,123936
27.99347,128765
27.99973,128636
28.00598,129495
28.01223,128419
28.01850,124210
28.02475,127327
28.03100,130038
28.03727,131431
28.04352,131465
28.04977,130685
28.05603,126783
28.06228,131381
28.06853,129919
28.07480,130109
28.08105,130506
28.08730,127723
28.09357,133685
28.09982,131857
28.10607,132146
28.11233,128075
28.11858,129590
28.12483,128748
28.13110,129929
28.13735,130251
28.14360,131467
28.14987,135920
28.15612,132699
28.16237,131609
28.16863,134441
28.17488,133779
28.18113,130207
28.18738,132527
28.19365,136442
28.19990,140576
28.20615,133989
28.21242,131196
28.21867,135589
28.22492,135472
28.23118,134971
28.23743,138110
28.24368,141627
28.24995,144025
28.25620,140870
28.26245,142606
28.26872,147196
28.27497,156066
28.28122,155707
28.28748,157973
28.29373,165134
28.29998,169375
28.30625,175551
28.31250,176942
28.31875,179515
28.32502,190673
28.33127,188667
28.33752,196269
28.34378,205413
28.35003,212679
28.35628,210736
28.36255,222691
28.36880,228390
28.37505,230853
28.38132,227601
28.38757,227407
28.39382,224595
28.40008,231786
28.40633,232971
28.41258,225717
28.41883,217285
28.42510,210727
28.43135,202172
28.43760,200513
28.44387,195526
28.45012,188818
28.45637,181613
28.46263,175974
28.46888,170649
28.47513,164024
28.48140,167268
28.48765,158859
28.49390,159633
28.50017,156491
28.50642,153459
28.51267,153876
28.51893,149634
28.52518,149866
28.53143,154065
28.53770,147834
28.54395,149857
28.55020,149198
28.55647,149885
28.56272,148509
28.56897,144131
28.57523,145682
28.58148,143077
28.58773,147328
28.59400,147838
28.60025,145749
28.60650,144247
28.61277,145932
28.61902,147980
28.62527,146686
28.63152,142751
28.63778,144538
28.64403,144431
28.65028,148947
28.65655,144725
28.66280,142475
28.66905,140632
28.67532,143297
28.68157,143412
28.68782,145483
28.69408,142276
28.70033,145351
28.70658,147570
28.71285,143050
28.71910,141109
28.72535,144044
28.73162,146236
28.73787,145683
28.74412,142080
28.75038,143078
28.75663,144901
28.76288,144691
28.76915,146032
28.77540,142629
28.78165,139708
28.78792,142303
28.79417,142718
28.80042,142962
28.80668,139756
28.81293,143030
28.81918,141778
28.82545,138201
28.83170,142113
28.83795,140886
28.84422,140181
28.85047,140544
28.85672,144980
28.86297,143882
28.86923,139251
28.87548,139827
28.88173,138357
28.88800,144575
28.89425,142803
28.90050,148300
28.90677,144568
28.91302,142264
28.91927,143629
28.92553,144244
28.93178,141808
28.93803,144369
28.94430,142874
28.95055,142293
28.95680,137328
28.96307,144419
28.96932,141531
28.97557,144817
28.98183,143321
28.98808,139829
28.99433,138484
29.00060,139310
29.00685,143127
29.01310,143040
29.01937,137037
29.02562,139184
29.03187,143381
29.03813,141174
29.04438,139854
29.05063,144398
29.05690,140379
29.06315,139281
29.06940,144174
29.07565,137693
29.08192,143629
29.08817,141369
29.09442,143068
29.10068,140550
29.10693,142092
29.11318,140844
29.11945,140659
29.12570,141442
29.13195,144781
29.13822,139108
29.14447,142629
29.15072,136880
29.15698,144169
29.16323,142474
29.16948,137869
29.17575,141321
29.18200,139847
29.18825,136629
29.19452,136849
29.20077,138659
29.20702,144855
29.21328,139953
29.21953,142152
29.22578,145527
29.23205,146026
29.23830,149321
29.24455,149650
29.25082,147134
29.25707,144630
29.26332,147160
29.26958,147507
29.27583,143490
29.28208,140499
29.28835,141317
29.29460,139476
29.30085,140533
29.30710,140408
29.31337,138172
29.31962,136374
29.32587,142177
29.33213,145916
29.33838,141795
29.34463,142613
29.35090,143560
29.35715,141326
29.36340,143782
29.36967,137952
29.37592,139082
29.38217,141900
29.38843,141229
29.39468,140684
29.40093,138967
29.40720,139347
29.41345,141795
29.41970,137322
29.42597,137524
29.43222,137904
29.43847,140152
29.44473,143551
29.45098,137333
29.45723,143734
29.46350,137431
29.46975,138758
29.47600,137164
29.48227,136113
29.48852,140889
29.49477,138179
29.50103,138491
29.50728,139147
29.51353,138923
29.51978,137405
29.52605,141563
29.53230,139883
29.53855,141788
29.54482,139638
29.55107,140759
29.55732,138552
29.56358,136093
29.56983,138488
29.57608,137813
29.58235,138921
29.58860,140015
29.59485,141203
29.60112,140169
29.60737,137796
29.61362,137291
29.61988,140450
29.62613,136406
29.63238,136355
29.63865,135780
29.64490,137885
29.65115,137516
29.65742,138744
29.66367,139758
29.66992,138017
29.67618,136584
29.68243,136875
29.68868,137521
29.69495,136078
29.70120,137521
29.70745,140074
29.71372,139005
29.71997,136030
29.72622,137340
29.73248,139622
29.73873,136371
29.74498,137769
29.75123,140377
29.75750,140595
29.76375,136096
29.77000,141595
29.77627,140633
29.78252,136013
29.78877,137087
29.79503,139769
29.80128,144881
29.80753,139686
29.81380,139592
29.82005,137098
29.82630,135521
29.83257,139532
29.83882,136254
29.84507,135784
29.85133,139228
29.85758,139240
29.86383,141426
29.87010,136075
29.87635,141948
29.88260,138174
29.88887,135530
29.89512,140663
29.90137,138751
29.90763,137110
29.91388,139455
29.92013,135547
29.92640,139382
29.93265,133916
29.93890,137469
29.94517,134590
29.95142,137698
29.95767,134288
29.96392,139349
29.97018,136884
29.97643,134910
29.98268,135030
29.98895,137822
29.99520,137390
30.00145,134055
30.00772,140007
30.01397,140987
30.02022,137413
30.02648,134213
30.03273,139574
30.03898,138399
30.04525,139101
30.05150,132360
30.05775,136093
30.06402,137615
30.07027,139140
30.07652,140196
30.08278,135142
30.08903,136871
30.09528,134988
30.10155,134897
30.10780,135802
30.11405,137569
30.12032,136016
30.12657,136531
30.13282,136345
30.13908,135817
30.14533,136868
30.15158,136347
30.15785,137845
30.16410,137245
30.17035,141866
30.17660,135427
30.18287,138320
30.18912,136399
30.19537,140573
30.20163,135929
30.20788,133285
30.21413,133366
30.22040,136376
30.22665,136349
30.23290,136107
30.23917,134458
30.24542,137295
30.25167,131959
30.25793,132900
30.26418,138281
30.27043,137230
30.27670,132415
30.28295,134815
30.28920,138832
30.29547,136338
30.30172,138469
30.30797,136956
30.31423,134725
30.32048,135817
30.32673,138937
30.33300,138571
30.33925,136564
30.34550,135620
30.35177,136084
30.35802,136034
30.36427,134489
30.37053,137248
30.37678,137653
30.38303,140485
30.38930,134378
30.39555,133112
30.40180,136439
30.40805,138008
30.41432,133071
30.42057,139772
30.42682,139521
30.43308,139204
30.43933,136857
30.44558,130501
30.45185,133246
30.45810,136951
30.46435,134365
30.47062,133843
30.47687,136475
30.48312,136859
30.48938,135558
30.49563,139766
30.50188,135419
30.50815,138809
30.51440,136262
30.52065,133152
30.52692,137033
30.53317,134760
30.53942,136290
30.54568,134055
30.55193,132781
30.55818,133874
30.56445,133455
30.57070,133072
30.57695,135201
30.58322,134477
30.58947,139101
30.59572,135342
30.60198,134301
30.60823,133203
30.61448,136156
30.62073,136218
30.62700,141607
30.63325,136150
30.63950,134549
30.64577,135917
30.65202,134802
30.65827,137736
30.66453,135723
30.67078,134340
30.67703,137290
30.68330,135072
30.68955,132623
30.69580,135585
30.70207,131918
30.70832,139729
30.71457,135128
30.72083,134237
30.72708,135548
30.73333,136033
30.73960,136390
30.74585,135354
30.75210,134705
30.75837,135830
30.76462,134417
30.77087,136689
30.77713,134301
30.78338,131938
30.78963,133342
30.79590,129271
30.80215,130436
30.80840,133422
30.81467,130411
30.82092,132129
30.82717,133161
30.83342,134640
30.83968,133467
30.84593,136632
30.85218,135662
30.85845,139188
30.86470,129607
30.87095,135596
30.87722,132676
30.88347,134450
30.88972,129476
30.89598,133452
30.90223,134075
30.90848,137393
30.91475,133094
30.92100,134155
30.92725,134071
30.93352,133847
30.93977,131842
30.94602,131659
30.95228,129522
30.95853,133578
30.96478,135283
30.97105,133178
30.97730,136154
30.98355,141928
30.98982,131927
30.99607,135600
31.00232,140897
31.00858,135744
31.01483,136155
31.02108,136080
31.02735,140211
31.03360,132029
31.03985,133933
31.04612,133699
31.05237,139436
31.05862,135425
31.06487,132727
31.07113,129792
31.07738,137173
31.08363,136528
31.08990,132960
31.09615,136846
31.10240,131943
31.10867,131224
31.11492,133582
31.12117,130718
31.12743,133460
31.13368,136416
31.13993,135627
31.14620,132431
31.15245,131725
31.15870,133814
31.16497,134567
31.17122,133427
31.17747,132415
31.18373,132252
31.18998,135753
31.19623,131161
31.20250,131942
31.20875,131228
31.21500,130649
31.22127,132752
31.22752,133252
31.23377,131730
31.24003,130764
31.24628,133577
31.25253,132312
31.25880,132213
31.26505,128796
31.27130,130535
31.27755,130910
31.28382,131317
31.29007,133146
31.29632,132477
31.30258,132653
31.30883,128971
31.31508,134661
31.32135,129527
31.32760,136520
31.33385,131286
31.34012,137956
31.34637,137190
31.35262,135086
31.35888,131837
31.36513,132419
31.37138,133040
31.37765,133441
31.38390,133643
31.39015,135156
31.39642,133559
31.40267,132173
31.40892,133210
31.41518,130393
31.42143,134145
31.42768,133121
31.43395,130728
31.44020,128788
31.44645,133970
31.45272,135994
31.45897,133933
31.46522,133058
31.47148,130871
31.47773,138165
31.48398,135571
31.49025,128913
31.49650,132284
31.50275,133665
31.50900,130569
31.51527,129913
31.52152,132888
31.52777,128648
31.53403,131760
31.54028,134976
31.54653,130102
31.55280,131279
31.55905,134958
31.56530,127313
31.57157,133274
31.57782,131374
31.58407,130863
31.59033,129222
31.59658,131296
31.60283,130496
31.60910,132908
31.61535,133830
31.62160,133699
31.62787,129336
31.63412,133944
31.64037,134177
31.64663,130169
31.65288,133055
31.65913,129828
31.66540,128412
31.67165,134167
31.67790,131879
31.68417,132190
31.69042,130225
31.69667,131711
31.70293,128598
31.70918,126856
31.71543,133158
31.72168,128901
31.72795,131615
31.73420,132462
31.74045,128301
31.74672,132007
31.75297,134157
31.75922,133089
31.76548,130228
31.77173,132959
31.77798,133990
31.78425,136123
31.79050,130657
31.79675,133068
31.80302,128632
31.80927,128689
31.81552,129389
31.82178,129442
31.82803,132473
31.83428,131797
31.84055,133984
31.84680,132712
31.85305,128696
31.85932,131205
31.86557,129207
31.87182,127339
31.87808,133389
31.88433,135325
31.89058,130417
31.89685,132453
31.90310,128455
31.90935,126932
31.91562,126076
31.92187,128905
31.92812,128958
31.93438,134068
31.94063,129858
31.94688,127009
31.95313,129490
31.95940,131161
31.96565,129150
31.97190,130190
31.97817,130192
31.98442,130884
31.99067,127056
31.99693,134072
32.00318,128808
32.00943,126689
32.01570,130258
32.02195,125180
32.02820,127518
32.03447,136738
32.04072,130568
32.04697,130080
32.05323,128484
32.05948,126295
32.06573,130608
32.07200,129815
32.07825,127517
32.08450,129524
32.09077,132090
32.09702,129352
32.10327,133333
32.10953,127361
32.11578,131210
32.12203,128699
32.12830,131203
32.13455,128059
32.14080,128792
32.14707,127597
32.15332,127709
32.15957,132398
32.16582,129007
32.17208,131517
32.17833,129012
32.18458,125950
32.19085,128513
32.19710,129369
32.20335,134250
32.20962,128402
32.21587,129010
32.22212,131019
32.22838,129267
32.23463,126838
32.24088,126538
32.24715,130089
32.25340,126844
32.25965,125114
32.26592,127614
32.27217,134083
32.27842,129219
32.28468,130569
32.29093,128889
32.29718,131615
32.30345,134828
32.30970,130410
32.31595,127627
32.32222,129388
32.32847,129411
32.33472,127730
32.34098,128745
32.34723,127226
32.35348,127310
32.35975,126315
32.36600,128862
32.37225,128272
32.37852,131231
32.38477,125878
32.39102,128407
32.39727,126918
32.40353,129611
32.40978,132208
32.41603,129235
32.42230,127638
32.42855,125804
32.43480,129102
32.44107,127505
32.44732,130046
32.45357,125211
32.45983,127223
32.46608,127459
32.47233,129997
32.47860,129597
32.48485,128188
32.49110,128937
32.49737,129293
32.50362,127667
32.50987,126087
32.51613,133106
32.52238,126899
32.52863,129345
32.53490,131994
32.54115,127874
32.54740,130530
32.55367,126309
32.55992,127627
32.56617,130278
32.57243,129447
32.57868,127368
32.58493,129269
32.59120,130520
32.59745,131262
32.60370,126512
32.60995,127671
32.61622,130171
32.62247,125591
32.62872,125037
32.63498,127260
32.64123,127017
32.64748,125770
32.65375,126822
32.66000,124871
32.66625,126041
32.67252,129040
32.67877,124901
32.68502,124519
32.69128,127348
32.69753,128276
32.70378,127254
32.71005,127462
32.71630,124182
32.72255,128061
32.72882,124173
32.73507,130916
32.74132,129643
32.74758,126090
32.75383,129474
32.76008,127905
32.76635,126565
32.77260,126114
32.77885,127180
32.78512,124557
32.79137,126474
32.79762,127027
32.80388,128009
32.81013,126628
32.81638,129697
32.82263,121369
32.82890,126905
32.83515,126212
32.84140,128024
32.84767,128722
32.85392,127936
32.86017,127654
32.86643,126846
32.87268,126459
32.87893,127366
32.88520,126403
32.89145,126470
32.89770,124813
32.90397,126527
32.91022,126293
32.91647,124384
32.92273,129134
32.92898,126511
32.93523,126424
32.94150,131234
32.94775,124161
32.95400,126818
32.96027,127330
32.96652,127298
32.97277,127463
32.97903,123641
32.98528,123046
32.99153,124054
32.99780,124007
33.00405,128856
33.01030,125795
33.01657,126775
33.02282,126615
33.02907,126731
33.03533,127181
33.04158,128252
33.04783,127711
33.05408,126829
33.06035,123073
33.06660,128096
33.07285,121859
33.07912,128126
33.08537,126009
33.09162,126249
33.09788,127156
33.10413,125969
33.11038,127923
33.11665,127308
33.12290,127767
33.12915,121524
33.13542,126931
33.14167,128643
33.14792,125462
33.15418,128137
33.16043,128900
33.16668,126861
33.17295,125410
33.17920,125016
33.18545,128196
33.19172,126266
33.19797,131117
33.20422,122079
33.21048,124972
33.21673,124625
33.22298,124451
33.22925,125065
33.23550,124585
33.24175,128773
33.24802,123712
33.25427,124501
33.26052,128660
33.26677,128599
33.27303,125494
33.27928,127818
33.28553,125140
33.29180,128572
33.29805,124963
33.30430,127172
33.31057,123639
33.31682,126365
33.32307,125969
33.32933,126337
33.33558,125804
33.34183,129729
33.34810,128547
33.35435,128037
33.36060,127044
33.36687,123092
33.37312,126801
33.37937,124789
33.38563,129485
33.39188,123937
33.39813,123458
33.40440,126959
33.41065,127879
33.41690,127820
33.42317,124724
33.42942,126531
33.43567,124136
33.44193,123383
33.44818,125823
33.45443,126208
33.46070,124015
33.46695,121375
33.47320,124656
33.47945,125259
33.48572,127386
33.49197,122787
33.49822,124323
33.50448,128962
33.51073,124415
33.51698,124061
33.52325,124028
33.52950,123052
33.53575,124512
33.54202,124697
33.54827,126882
33.55452,126746
33.56078,125932
33.56703,122923
33.57328,122741
33.57955,130919
33.58580,123105
33.59205,126880
33.59832,122242
33.60457,123969
33.61082,121742
33.61708,123181
33.62333,122864
33.62958,125000
33.63585,123724
33.64210,128338
33.64835,129332
33.65462,126615
33.66087,123856
33.66712,127024
33.67338,126183
33.67963,127414
33.68588,127400
33.69215,125885
33.69840,125126
33.70465,122544
33.71090,124817
33.71717,127708
33.72342,121531
33.72967,122126
33.73593,126117
33.74218,124651
33.74843,124427
33.75470,124152
33.76095,124601
33.76720,127109
33.77347,120271
33.77972,123556
33.78597,126090
33.79223,125197
33.79848,122588
33.80473,125218
33.81100,126370
33.81725,122199
33.82350,127878
33.82977,123995
33.83602,120470
33.84227,122052
33.84853,123158
33.85478,121658
33.86103,126176
33.86730,125128
33.87355,125600
33.87980,122953
33.88607,122440
33.89232,122367
33.89857,122147
33.90483,123155
33.91108,124631
33.91733,121839
33.92358,121906
33.92985,124341
33.93610,125671
33.94235,125447
33.94862,120678
33.95487,122194
33.96112,119046
33.96738,123604
33.97363,122468
33.97988,124271
33.98615,120682
33.99240,123662
33.99865,125810
34.00492,126351
34.01117,125018
34.01742,121641
34.02368,122509
34.02993,125395
34.03618,127456
34.04245,122044
34.04870,124585
34.05495,123105
34.06122,120724
34.06747,119317
34.07372,120475
34.07998,125270
34.08623,121875
34.09248,126605
34.09875,122215
34.10500,128170
34.11125,122908
34.11752,122277
34.12377,120511
34.13002,124343
34.13628,126418
34.14253,120802
34.14878,122777
34.15503,124109
34.16130,123276
34.16755,121704
34.17380,123752
34.18007,121583
34.18632,123258
34.19257,124417
34.19883,125261
34.20508,125753
34.21133,122760
34.21760,121645
34.22385,123356
34.23010,120760
34.23637,124520
34.24262,120249
34.24887,119528
34.25513,122942
34.26138,121553
34.26763,125702
34.27390,124200
34.28015,124189
34.28640,123589
34.29267,126503
34.29892,125561
34.30517,125477
34.31143,123260
34.31768,120429
34.32393,123630
34.33020,120992
34.33645,121791
34.34270,124637
34.34897,123050
34.35522,122044
34.36147,125960
34.36772,123152
34.37398,123081
34.38023,122384
34.38648,123362
34.39275,124409
34.39900,119388
34.40525,123015
34.41152,125573
34.41777,121629
34.42402,121201
34.43028,121145
34.43653,123933
34.44278,122482
34.44905,122882
34.45530,123063
34.46155,124625
34.46782,120780
34.47407,124248
34.48032,122888
34.48658,123508
34.49283,122869
34.49908,123996
34.50535,122668
34.51160,119790
34.51785,122131
34.52412,124611
34.53037,122324
34.53662,120803
34.54288,124108
34.54913,121978
34.55538,124260
34.56165,122411
34.56790,120893
34.57415,122094
34.58042,125138
34.58667,121025
34.59292,123349
34.59917,124206
34.60543,119061
34.61168,121203
34.61793,119886
34.62420,119899
34.63045,119025
34.63670,120498
34.64297,123965
34.64922,120409
34.65547,118428
34.66173,124184
34.66798,122696
34.67423,120134
34.68050,119615
34.68675,125778
34.69300,122375
34.69927,121350
34.70552,121194
34.71177,123608
34.71803,119958
34.72428,124025
34.73053,122100
34.73680,124097
34.74305,121807
34.74930,123684
34.75557,121937
34.76182,121199
34.76807,121936
34.77433,120750
34.78058,122185
34.78683,123473
34.79310,123835
34.79935,127112
34.80560,120649
34.81185,121758
34.81812,117365
34.82437,125075
34.83062,121644
34.83688,118658
34.84313,118663
34.84938,124120
34.85565,119595
34.86190,122926
34.86815,124702
34.87442,119448
34.88067,118851
34.88692,119847
34.89318,119321
34.89943,121837
34.90568,122427
34.91195,121230
34.91820,118368
34.92445,121995
34.93072,118374
34.93697,125447
34.94322,124920
34.94948,118317
34.95573,120827
34.96198,120692
34.96825,118839
34.97450,122742
34.98075,120209
34.98702,124234
34.99327,122698
34.99952,119451
35.00578,121949
35.01203,124352
35.01828,120594
35.02455,119146
35.03080,124383
35.03705,119809
35.04330,121730
35.04957,124708
35.05582,118183
35.06207,119299
35.06833,123702
35.07458,120728
35.08083,121926
35.08710,120339
35.09335,120399
35.09960,120116
35.10587,120670
35.11212,119781
35.11837,122124
35.12463,118892
35.13088,120841
35.13713,118322
35.14340,123489
35.14965,123954
35.15590,116818
35.16217,120745
35.16842,123129
35.17467,122741
35.18093,120244
35.18718,117896
35.19343,121900
35.19970,122416
35.20595,119267
35.21220,118831
35.21847,124534
35.22472,119330
35.23097,117077
35.23723,120923
35.24348,119884
35.24973,120718
35.25598,118959
35.26225,124148
35.26850,118701
35.27475,115174
35.28102,118761
35.28727,126107
35.29352,119331
35.29978,124070
35.30603,121575
35.31228,120101
35.31855,119435
35.32480,120012
35.33105,120488
35.33732,122130
35.34357,118556
35.34982,119489
35.35608,118367
35.36233,120817
35.36858,120225
35.37485,121300
35.38110,122922
35.38735,118633
35.39362,120676
35.39987,123471
35.40612,120409
35.41238,125102
35.41863,118070
35.42488,119948
35.43115,117386
35.43740,123727
35.44365,122650
35.44992,121405
35.45617,117873
35.46242,118467
35.46867,118526
35.47493,122702
35.48118,119304
35.48743,120158
35.49370,121244
35.49995,122085
35.50620,120478
35.51247,117484
35.51872,118651
35.52497,119576
35.53123,121845
35.53748,121913
35.54373,123410
35.55000,119032
35.55625,126993
35.56250,122397
35.56877,120662
35.57502,116098
35.58127,120399
35.58753,118071
35.59378,122466
35.60003,121481
35.60630,120909
35.61255,120631
35.61880,122776
35.62507,115994
35.63132,121672
35.63757,119068
35.64383,120082
35.65008,121023
35.65633,119080
35.66260,120424
35.66885,119983
35.67510,122433
35.68137,120886
35.68762,120967
35.69387,121585
35.70012,118498
35.70638,119375
35.71263,119952
35.71888,119787
35.72515,124098
35.73140,119528
35.73765,122429
35.74392,119463
35.75017,120911
35.75642,119974
35.76268,119982
35.76893,118278
35.77518,116138
35.78145,119544
35.78770,123889
35.79395,116628
35.80022,118251
35.80647,120429
35.81272,119748
35.81898,118979
35.82523,119765
35.83148,119254
35.83775,119383
35.84400,118383
35.85025,118893
35.85652,118523
35.86277,118819
35.86902,120517
35.87528,120137
35.88153,119685
35.88778,118285
35.89405,122907
35.90030,116712
35.90655,120250
35.91280,117029
35.91907,118523
35.92532,118351
35.93157,118576
35.93783,119604
35.94408,121981
35.95033,120778
35.95660,119980
35.96285,120040
35.96910,118769
35.97537,121547
35.98162,119695
35.98787,117645
35.99413,116343
36.00038,117865
36.00663,118028
36.01290,117107
36.01915,116973
36.02540,114697
36.03167,123848
36.03792,119926
36.04417,116897
36.05043,114726
36.05668,119539
36.06293,119553
36.06920,117321
36.07545,118185
36.08170,118310
36.08797,115331
36.09422,119688
36.10047,116188
36.10673,117374
36.11298,117162
36.11923,117509
36.12548,118860
36.13175,116699
36.13800,120212
36.14425,119199
36.15052,118626
36.15677,117081
36.16302,119634
36.16928,114658
36.17553,118092
36.18178,115803
36.18805,119465
36.19430,117284
36.20055,117669
36.20682,117412
36.21307,117991
36.21932,120241
36.22558,119202
36.23183,117341
36.23808,119426
36.24435,117881
36.25060,118418
36.25685,116071
36.26312,119028
36.26937,122669
36.27562,116516
36.28188,117870
36.28813,118834
36.29438,119244
36.30065,116725
36.30690,120016
36.31315,118737
36.31942,116056
36.32567,116203
36.33192,116387
36.33818,115805
36.34443,116341
36.35068,117076
36.35693,115299
36.36320,119982
36.36945,120630
36.37570,117135
36.38197,115222
36.38822,114659
36.39447,116873
36.40073,118276
36.40698,118042
36.41323,118874
36.41950,120769
36.42575,120209
36.43200,113318
36.43827,116135
36.44452,118230
36.45077,120274
36.45703,115720
36.46328,117235
36.46953,117472
36.47580,116966
36.48205,116213
36.48830,117111
36.49457,118553
36.50082,119274
36.50707,119558
36.51333,119620
36.51958,117698
36.52583,117616
36.53210,116854
36.53835,115608
36.54460,114889
36.55087,118054
36.55712,116416
36.56337,118860
36.56962,121138
36.57588,118568
36.58213,118708
36.58838,116736
36.59465,118817
36.60090,120145
36.60715,117267
36.61342,116779
36.61967,118878
36.62592,120000
36.63218,116060
36.63843,117972
36.64468,117489
36.65095,115515
36.65720,114435
36.66345,115642
36.66972,116515
36.67597,114538
36.68222,116046
36.68848,116999
36.69473,114867
36.70098,115183
36.70725,115563
36.71350,121202
36.71975,118378
36.72602,119659
36.73227,116668
36.73852,116081
36.74478,117065
36.75103,122139
36.75728,117009
36.76355,118456
36.76980,115691
36.77605,114546
36.78230,116378
36.78857,116342
36.79482,119064
36.80107,116266
36.80733,116096
36.81358,114839
36.81983,116666
36.82610,114196
36.83235,118853
36.83860,117373
36.84487,118215
36.85112,115485
36.85737,115366
36.86363,111673
36.86988,117270
36.87613,114249
36.88240,120273
36.88865,116264
36.89490,115036
36.90117,118815
36.90742,118825
36.91367,118372
36.91993,118853
36.92618,113913
36.93243,118926
36.93870,115803
36.94495,114181
36.95120,116882
36.95747,120068
36.96372,118477
36.96997,117212
36.97623,117741
36.98248,116327
36.98873,114032
36.99500,116827
37.00125,111815
37.00750,116616
37.01375,116516
37.02002,117042
37.02627,118066
37.03252,117366
37.03878,119200
37.04503,117697
37.05128,116217
37.05755,117871
37.06380,118709
37.07005,118961
37.07632,117195
37.08257,114554
37.08882,117143
37.09508,115732
37.10133,117573
37.10758,111673
37.11385,118267
37.12010,116584
37.12635,119659
37.13262,117698
37.13887,119730
37.14512,119849
37.15138,116276
37.15763,115685
37.16388,117567
37.17015,118843
37.17640,116230
37.18265,117285
37.18892,115317
37.19517,113805
37.20142,117984
37.20768,112221
37.21393,112557
37.22018,115041
37.22643,114858
37.23270,116569
37.23895,117236
37.24520,116912
37.25147,118526
37.25772,112435
37.26397,116789
37.27023,114155
37.27648,118790
37.28273,116847
37.28900,114554
37.29525,115364
37.30150,112930
37.30777,113593
37.31402,114433
37.32027,115610
37.32653,117425
37.33278,116048
37.33903,118997
37.34530,114848
37.35155,114167
37.35780,116661
37.36407,113776
37.37032,117479
37.37657,117752
37.38283,116637
37.38908,117294
37.39533,117618
37.40160,114835
37.40785,115100
37.41410,114755
37.42037,115076
37.42662,112276
37.43287,112905
37.43913,117924
37.44538,118380
37.45163,118382
37.45788,115798
37.46415,112092
37.47040,113672
37.47665,118127
37.48292,114076
37.48917,118194
