D:\MassHunter\GCMS\1\data\metastasis_lineages_3replicates_3runs_10302020\M_plate1_run3_10302020.D Sat Oct 31 11:30:26 2020
Start of data points
5.99350	163909
5.99975	164966
6.00600	164281
6.01227	161148
6.01852	170356
6.02477	188114
6.03103	202257
6.03728	217932
6.04353	199745
6.04980	183563
6.05605	172511
6.06230	181610
6.06857	191482
6.07482	190575
6.08107	204358
6.08733	289502
6.09358	635141
6.09983	1155265
6.10610	1299530
6.11235	932498
6.11860	499282
6.12485	294167
6.13112	262302
6.13737	304092
6.14362	359768
6.14988	481658
6.15613	762610
6.16238	1144390
6.16865	1224239
6.17490	876294
6.18115	492201
6.18742	297612
6.19367	244413
6.19992	231663
6.20618	203937
6.21243	181201
6.21868	172257
6.22495	165452
6.23120	178008
6.23745	167765
6.24372	155444
6.24997	151237
6.25622	162388
6.26248	168397
6.26873	170440
6.27498	169492
6.28125	171019
6.28750	155555
6.29375	157807
6.30002	163020
6.30627	178030
6.31252	249647
6.31878	345044
6.32503	402336
6.33128	349096
6.33753	292125
6.34380	237057
6.35005	194664
6.35630	164458
6.36257	172264
6.36882	178983
6.37507	189376
6.38133	236313
6.38758	341498
6.39383	502332
6.40010	577332
6.40635	514531
6.41260	482807
6.41887	587828
6.42512	840031
6.43137	1049520
6.43763	886440
6.44388	615552
6.45013	683355
6.45640	1825870
6.46265	5786955
6.46890	1.446826E+07
6.47517	2.519084E+07
6.48142	3.089827E+07
6.48767	2.586152E+07
6.49393	1.077818E+07
6.50018	2138305
6.50643	457961
6.51270	303608
6.51895	305130
6.52520	335689
6.53147	462471
6.53772	945977
6.54397	2029028
6.55022	3136521
6.55648	2933135
6.56273	1670689
6.56898	740920
6.57525	417197
6.58150	344706
6.58775	307170
6.59402	285878
6.60027	261870
6.60652	251454
6.61278	242533
6.61903	243269
6.62528	247622
6.63155	270045
6.63780	280788
6.64405	294649
6.65032	352888
6.65657	441024
6.66282	461201
6.66908	379247
6.67533	314138
6.68158	283636
6.68785	274237
6.69410	272960
6.70035	278632
6.70662	305609
6.71287	321879
6.71912	351118
6.72538	357774
6.73163	365475
6.73788	367325
6.74415	365344
6.75040	367205
6.75665	371888
6.76292	366936
6.76917	372671
6.77542	379937
6.78167	403082
6.78793	418808
6.79418	434768
6.80043	444629
6.80670	450385
6.81295	452700
6.81920	481442
6.82547	507505
6.83172	566749
6.83797	612794
6.84423	581170
6.85048	533690
6.85673	507818
6.86300	554966
6.86925	656827
6.87550	761422
6.88177	711837
6.88802	605053
6.89427	531840
6.90053	488065
6.90678	468442
6.91303	457794
6.91930	440674
6.92555	424060
6.93180	432721
6.93807	434982
6.94432	416180
6.95057	398993
6.95683	379355
6.96308	369193
6.96933	350267
6.97560	355955
6.98185	349195
6.98810	334518
6.99435	313606
7.00062	301914
7.00687	308785
7.01312	339078
7.01938	418798
7.02563	728971
7.03188	1436739
7.03815	2256212
7.04440	2363340
7.05065	1613805
7.05692	788095
7.06317	363599
7.06942	243862
7.07568	198964
7.08193	169614
7.08818	162966
7.09445	163405
7.10070	159413
7.10695	158746
7.11322	150418
7.11947	155562
7.12572	165202
7.13198	169162
7.13823	160873
7.14448	142701
7.15075	130011
7.15700	126558
7.16325	129094
7.16952	138134
7.17577	129510
7.18202	127556
7.18828	120900
7.19453	119189
7.20078	117527
7.20703	121957
7.21330	116989
7.21955	121032
7.22580	134550
7.23207	157238
7.23832	176821
7.24457	228037
7.25083	346504
7.25708	498851
7.26333	547212
7.26960	425400
7.27585	301154
7.28210	203264
7.28837	169540
7.29462	151859
7.30087	149032
7.30713	137936
7.31338	129316
7.31963	119988
7.32590	115267
7.33215	113719
7.33840	112744
7.34467	118845
7.35092	111593
7.35717	107737
7.36343	108730
7.36968	120018
7.37593	140129
7.38220	158658
7.38845	152564
7.39470	144020
7.40097	145602
7.40722	202764
7.41347	314562
7.41973	431592
7.42598	472038
7.43223	417626
7.43848	291512
7.44475	188902
7.45100	167219
7.45725	169854
7.46352	193660
7.46977	191728
7.47602	192116
7.48228	200190
7.48853	189270
7.49478	167884
7.50105	151698
7.50730	137280
7.51355	119202
7.51982	115781
7.52607	115707
7.53232	119998
7.53858	193973
7.54483	638164
7.55108	2600782
7.55735	7732603
7.56360	1.600909E+07
7.56985	2.479415E+07
7.57612	3.013794E+07
7.58237	2.697002E+07
7.58862	1.418827E+07
7.59488	4280460
7.60113	2165365
7.60738	2081629
7.61365	1723908
7.61990	1197989
7.62615	804805
7.63242	547916
7.63867	352363
7.64492	242980
7.65117	196992
7.65743	191382
7.66368	236828
7.66993	317930
7.67620	378303
7.68245	349685
7.68870	253717
7.69497	185040
7.70122	188629
7.70747	250435
7.71373	337962
7.71998	382682
7.72623	336945
7.73250	284728
7.73875	224474
7.74500	184760
7.75127	159290
7.75752	138164
7.76377	135414
7.77003	137027
7.77628	152088
7.78253	159026
7.78880	151764
7.79505	153577
7.80130	148357
7.80757	151754
7.81382	179178
7.82007	247334
7.82633	296607
7.83258	288923
7.83883	238989
7.84510	192159
7.85135	195683
7.85760	221074
7.86387	234167
7.87012	227956
7.87637	227651
7.88262	228689
7.88888	204558
7.89513	186970
7.90138	188162
7.90765	192770
7.91390	188703
7.92015	185327
7.92642	169865
7.93267	163914
7.93892	161624
7.94518	193514
7.95143	241514
7.95768	257051
7.96395	246428
7.97020	241537
7.97645	269126
7.98272	417401
7.98897	680671
7.99522	920500
8.00148	1012454
8.00773	1247314
8.01398	1872157
8.02025	2411910
8.02650	2274092
8.03275	1556580
8.03902	977162
8.04527	882289
8.05152	977430
8.05778	954823
8.06403	680233
8.07028	388652
8.07655	238031
8.08280	198745
8.08905	207375
8.09530	228608
8.10157	247711
8.10782	264535
8.11407	265420
8.12033	238682
8.12658	199638
8.13283	184390
8.13910	173883
8.14535	159700
8.15160	150041
8.15787	150874
8.16412	142908
8.17037	135589
8.17663	138092
8.18288	137365
8.18913	132834
8.19540	126211
8.20165	126353
8.20790	122296
8.21417	123229
8.22042	130862
8.22667	139509
8.23293	156041
8.23918	159256
8.24543	163937
8.25170	159864
8.25795	160876
8.26420	160881
8.27047	166179
8.27672	194946
8.28297	246099
8.28923	265732
8.29548	228948
8.30173	170346
8.30800	129771
8.31425	113279
8.32050	113737
8.32675	120121
8.33302	134268
8.33927	129737
8.34552	129261
8.35178	127229
8.35803	142921
8.36428	145795
8.37055	138122
8.37680	132330
8.38305	123434
8.38932	117628
8.39557	114782
8.40182	115291
8.40808	124889
8.41433	136607
8.42058	130121
8.42685	125364
8.43310	131344
8.43935	137123
8.44562	129036
8.45187	123781
8.45812	119955
8.46438	120711
8.47063	127447
8.47688	130651
8.48315	134752
8.48940	131995
8.49565	144181
8.50192	155232
8.50817	162742
8.51442	147149
8.52068	125525
8.52693	118187
8.53318	111754
8.53943	111634
8.54570	113359
8.55195	146603
8.55820	236121
8.56447	385069
8.57072	495461
8.57697	489070
8.58323	473804
8.58948	578561
8.59573	808488
8.60200	1236245
8.60825	2780236
8.61450	6769326
8.62077	1.211768E+07
8.62702	1.498083E+07
8.63327	1.20668E+07
8.63953	5650596
8.64578	1633910
8.65203	455078
8.65830	241005
8.66455	214248
8.67080	201644
8.67707	188266
8.68332	160267
8.68957	144599
8.69583	150599
8.70208	178853
8.70833	212672
8.71460	225871
8.72085	204868
8.72710	175258
8.73337	166520
8.73962	187457
8.74587	202535
8.75213	185958
8.75838	148928
8.76463	123458
8.77088	111240
8.77715	112454
8.78340	113483
8.78965	111478
8.79592	106328
8.80217	99250
8.80842	96592
8.81468	105271
8.82093	161162
8.82718	370549
8.83345	1047363
8.83970	2739871
8.84595	5450385
8.85222	8341312
8.85847	9784326
8.86472	9422611
8.87098	7542553
8.87723	4005298
8.88348	1061628
8.88975	333439
8.89600	233150
8.90225	201799
8.90852	172389
8.91477	156473
8.92102	149004
8.92728	140776
8.93353	136104
8.93978	135858
8.94605	151076
8.95230	179955
8.95855	225852
8.96482	271158
8.97107	309393
8.97732	347066
8.98357	379199
8.98983	477106
8.99608	669802
9.00233	893886
9.00860	1017812
9.01485	904999
9.02110	632287
9.02737	395376
9.03362	268909
9.03987	211978
9.04613	181149
9.05238	175790
9.05863	170102
9.06490	167486
9.07115	158096
9.07740	147804
9.08367	151595
9.08992	165949
9.09617	179225
9.10243	178575
9.10868	158609
9.11493	139568
9.12120	124506
9.12745	114601
9.13370	112997
9.13997	123984
9.14622	143683
9.15247	190381
9.15873	248032
9.16498	280538
9.17123	291165
9.17750	317083
9.18375	425402
9.19000	574715
9.19625	593574
9.20252	457101
9.20877	290346
9.21502	190935
9.22128	145838
9.22753	136691
9.23378	173378
9.24005	233544
9.24630	280894
9.25255	279413
9.25882	216662
9.26507	150242
9.27132	122975
9.27758	108115
9.28383	119703
9.29008	155942
9.29635	224730
9.30260	308297
9.30885	387482
9.31512	462500
9.32137	522829
9.32762	513198
9.33388	568725
9.34013	867027
9.34638	1303890
9.35265	1475492
9.35890	1150136
9.36515	668009
9.37142	556156
9.37767	1463116
9.38392	4554696
9.39018	9779873
9.39643	1.430268E+07
9.40268	1.476903E+07
9.40895	9435947
9.41520	3654581
9.42145	1125493
9.42770	1033128
9.43397	3321323
9.44022	1.021131E+07
9.44647	2.226962E+07
9.45273	3.550178E+07
9.45898	4.306094E+07
9.46523	4.334513E+07
9.47150	3.127711E+07
9.47775	1.087075E+07
9.48400	2089575
9.49027	567157
9.49652	286681
9.50277	193588
9.50903	170767
9.51528	170857
9.52153	177235
9.52780	171823
9.53405	177519
9.54030	177729
9.54657	172616
9.55282	162977
9.55907	162046
9.56533	171532
9.57158	186613
9.57783	200219
9.58410	194793
9.59035	189928
9.59660	193462
9.60287	221578
9.60912	255690
9.61537	278828
9.62163	246411
9.62788	185038
9.63413	150141
9.64038	135420
9.64665	138074
9.65290	135242
9.65915	133315
9.66542	129632
9.67167	206819
9.67792	650331
9.68418	2564009
9.69043	6916322
9.69668	1.277244E+07
9.70295	1.538327E+07
9.70920	1.219883E+07
9.71545	5696948
9.72172	1781112
9.72797	686409
9.73422	563989
9.74048	568194
9.74673	465538
9.75298	313086
9.75925	212035
9.76550	176695
9.77175	162343
9.77802	162497
9.78427	155939
9.79052	146008
9.79678	136434
9.80303	130450
9.80928	128511
9.81555	123027
9.82180	122829
9.82805	128936
9.83432	148718
9.84057	178383
9.84682	238063
9.85307	544515
9.85933	1630461
9.86558	4317124
9.87183	7731378
9.87810	9068891
9.88435	6778512
9.89060	3493359
9.89687	1516343
9.90312	1293426
9.90937	1635181
9.91563	1554677
9.92188	995783
9.92813	479372
9.93440	241864
9.94065	179520
9.94690	189498
9.95317	249159
9.95942	422906
9.96567	749077
9.97193	1124530
9.97818	1401867
9.98443	1625069
9.99070	1766279
9.99695	1686057
10.00320	1287993
10.00947	754034
10.01572	410972
10.02197	277855
10.02823	213806
10.03448	188852
10.04073	183861
10.04700	188166
10.05325	192243
10.05950	176574
10.06577	150801
10.07202	138635
10.07827	137587
10.08452	152810
10.09078	190904
10.09703	222672
10.10328	227823
10.10955	197779
10.11580	169356
10.12205	143648
10.12832	132717
10.13457	123799
10.14082	119688
10.14708	113219
10.15333	122525
10.15958	123646
10.16585	123756
10.17210	130192
10.17835	146358
10.18462	159660
10.19087	156654
10.19712	148920
10.20338	144797
10.20963	140824
10.21588	170549
10.22215	271552
10.22840	469209
10.23465	751932
10.24092	951173
10.24717	914903
10.25342	665386
10.25968	432344
10.26593	314878
10.27218	249174
10.27845	198106
10.28470	186276
10.29095	212922
10.29720	231203
10.30347	226420
10.30972	193611
10.31597	177655
10.32223	170441
10.32848	151199
10.33473	147824
10.34100	146893
10.34725	143385
10.35350	135885
10.35977	137993
10.36602	149479
10.37227	146883
10.37853	141951
10.38478	128426
10.39103	119815
10.39730	112771
10.40355	98840
10.40980	101079
10.41607	105693
10.42232	117580
10.42857	130087
10.43483	139246
10.44108	150679
10.44733	149690
10.45360	170526
10.45985	164370
10.46610	166860
10.47237	187943
10.47862	273714
10.48487	403390
10.49113	476367
10.49738	424252
10.50363	279966
10.50990	177640
10.51615	139036
10.52240	141818
10.52865	181607
10.53492	241387
10.54117	281414
10.54742	262704
10.55368	213192
10.55993	186980
10.56618	177964
10.57245	186190
10.57870	200779
10.58495	206055
10.59122	195206
10.59747	239218
10.60372	565308
10.60998	1847071
10.61623	4571921
10.62248	8319669
10.62875	9688021
10.63500	7503924
10.64125	3749041
10.64752	1284850
10.65377	410614
10.66002	201146
10.66628	167583
10.67253	169008
10.67878	178764
10.68505	180253
10.69130	161332
10.69755	138521
10.70382	125009
10.71007	124493
10.71632	136175
10.72258	145139
10.72883	161406
10.73508	167143
10.74133	163955
10.74760	155912
10.75385	148501
10.76010	161002
10.76637	181266
10.77262	199283
10.77887	203671
10.78513	194689
10.79138	174498
10.79763	153377
10.80390	147759
10.81015	155485
10.81640	170285
10.82267	186540
10.82892	172197
10.83517	149751
10.84143	130026
10.84768	133495
10.85393	145654
10.86020	156206
10.86645	169764
10.87270	165055
10.87897	172035
10.88522	163717
10.89147	164735
10.89773	170528
10.90398	180690
10.91023	178061
10.91650	170882
10.92275	167244
10.92900	179923
10.93527	179586
10.94152	166060
10.94777	138738
10.95403	137742
10.96028	210244
10.96653	604800
10.97278	2051838
10.97905	5550758
10.98530	1.130764E+07
10.99155	1.687641E+07
10.99782	1.806624E+07
11.00407	1.261317E+07
11.01032	5252338
11.01658	1483079
11.02283	417719
11.02908	235738
11.03535	247149
11.04160	267208
11.04785	294162
11.05412	315793
11.06037	344854
11.06662	337013
11.07288	265882
11.07913	188482
11.08538	146283
11.09165	131972
11.09790	139022
11.10415	143048
11.11042	149586
11.11667	156911
11.12292	174152
11.12918	193575
11.13543	201671
11.14168	204659
11.14795	206005
11.15420	281650
11.16045	437350
11.16672	664530
11.17297	743685
11.17922	607635
11.18547	381645
11.19173	236688
11.19798	189177
11.20423	246354
11.21050	391008
11.21675	550135
11.22300	608690
11.22927	493836
11.23552	341453
11.24177	254345
11.24803	245055
11.25428	259363
11.26053	255445
11.26680	230359
11.27305	232711
11.27930	236296
11.28557	242360
11.29182	230734
11.29807	195349
11.30433	167457
11.31058	184078
11.31683	266482
11.32310	437017
11.32935	612376
11.33560	661608
11.34187	524447
11.34812	302246
11.35437	174697
11.36063	129116
11.36688	120672
11.37313	120552
11.37940	111548
11.38565	106491
11.39190	111601
11.39817	119048
11.40442	125709
11.41067	130786
11.41692	130460
11.42318	126854
11.42943	126274
11.43568	133167
11.44195	143490
11.44820	162377
11.45445	177427
11.46072	166607
11.46697	148456
11.47322	135608
11.47948	133129
11.48573	139247
11.49198	141205
11.49825	143461
11.50450	149236
11.51075	139834
11.51702	139065
11.52327	135303
11.52952	134870
11.53578	144988
11.54203	159409
11.54828	165173
11.55455	154537
11.56080	140667
11.56705	129453
11.57332	130527
11.57957	133689
11.58582	132393
11.59208	131593
11.59833	137567
11.60458	136765
11.61085	130797
11.61710	127990
11.62335	130503
11.62960	128812
11.63587	133478
11.64212	138139
11.64837	154228
11.65463	188828
11.66088	204615
11.66713	204509
11.67340	180926
11.67965	158656
11.68590	141967
11.69217	143297
11.69842	157865
11.70467	179383
11.71093	210400
11.71718	234578
11.72343	236006
11.72970	220213
11.73595	211482
11.74220	205820
11.74847	181898
11.75472	160618
11.76097	152271
11.76723	164748
11.77348	174338
11.77973	187834
11.78600	193340
11.79225	198914
11.79850	212539
11.80477	211841
11.81102	193624
11.81727	197348
11.82353	226076
11.82978	349788
11.83603	569196
11.84228	696915
11.84855	657388
11.85480	486688
11.86105	302666
11.86732	204631
11.87357	175915
11.87982	196296
11.88608	251707
11.89233	323836
11.89858	374968
11.90485	376686
11.91110	310467
11.91735	248495
11.92362	218216
11.92987	200414
11.93612	265899
11.94238	526907
11.94863	1284796
11.95488	2776465
11.96115	4854145
11.96740	6411386
11.97365	6269385
11.97992	4059563
11.98617	1720539
11.99242	641286
11.99868	313723
12.00493	247260
12.01118	232824
12.01745	252243
12.02370	277812
12.02995	338861
12.03622	426999
12.04247	648203
12.04872	1017886
12.05498	1446488
12.06123	1591253
12.06748	1368278
12.07373	911572
12.08000	570674
12.08625	431187
12.09250	388965
12.09877	364771
12.10502	332760
12.11127	298708
12.11753	254192
12.12378	226440
12.13003	212963
12.13630	208415
12.14255	199336
12.14880	195882
12.15507	187081
12.16132	193948
12.16757	202844
12.17383	212090
12.18008	220791
12.18633	233426
12.19260	252831
12.19885	312016
12.20510	447564
12.21137	696070
12.21762	940666
12.22387	1064659
12.23013	982566
12.23638	770702
12.24263	601869
12.24890	610318
12.25515	816449
12.26140	1108612
12.26767	1333429
12.27392	1229556
12.28017	916650
12.28642	618705
12.29268	418900
12.29893	298813
12.30518	210440
12.31145	180551
12.31770	155282
12.32395	142302
12.33022	139372
12.33647	165156
12.34272	202627
12.34898	247721
12.35523	289471
12.36148	294134
12.36775	254834
12.37400	235447
12.38025	257200
12.38652	321645
12.39277	375095
12.39902	354887
12.40528	285177
12.41153	244353
12.41778	219003
12.42405	217672
12.43030	266265
12.43655	328138
12.44282	347958
12.44907	328556
12.45532	282138
12.46158	252215
12.46783	238307
12.47408	304527
12.48035	502654
12.48660	857863
12.49285	1238283
12.49910	1375082
12.50537	1128071
12.51162	687165
12.51787	345480
12.52413	214109
12.53038	203180
12.53663	260041
12.54290	332963
12.54915	377893
12.55540	337433
12.56167	280451
12.56792	284095
12.57417	474291
12.58043	946583
12.58668	1566366
12.59293	1942935
12.59920	1863747
12.60545	1495858
12.61170	1515499
12.61797	2076493
12.62422	2947965
12.63047	4183905
12.63673	5807666
12.64298	8183888
12.64923	1.163975E+07
12.65550	1.518618E+07
12.66175	1.914391E+07
12.66800	2.3796E+07
12.67427	2.720464E+07
12.68052	2.581993E+07
12.68677	1.662038E+07
12.69303	5407443
12.69928	1186114
12.70553	434777
12.71180	337571
12.71805	339866
12.72430	379398
12.73055	453644
12.73682	548541
12.74307	595509
12.74932	566595
12.75558	483416
12.76183	431768
12.76808	390904
12.77435	353128
12.78060	323848
12.78685	295943
12.79312	280255
12.79937	265657
12.80562	257957
12.81188	247280
12.81813	251819
12.82438	270866
12.83065	292860
12.83690	296520
12.84315	274517
12.84942	254913
12.85567	244475
12.86192	243530
12.86818	240707
12.87443	269179
12.88068	369384
12.88695	662597
12.89320	1134310
12.89945	1533029
12.90572	1484105
12.91197	1124899
12.91822	718946
12.92448	475449
12.93073	328010
12.93698	235410
12.94323	190001
12.94950	165218
12.95575	161852
12.96200	153363
12.96827	144312
12.97452	138917
12.98077	132510
12.98703	148330
12.99328	156862
12.99953	177013
13.00580	197297
13.01205	223287
13.01830	257864
13.02457	325556
13.03082	443439
13.03707	545214
13.04333	550504
13.04958	435042
13.05583	277357
13.06210	188646
13.06835	172599
13.07460	224301
13.08087	317036
13.08712	412350
13.09337	455601
13.09963	441094
13.10588	415701
13.11213	399240
13.11840	345828
13.12465	280394
13.13090	247128
13.13717	250752
13.14342	260511
13.14967	259708
13.15593	255837
13.16218	252468
13.16843	225884
13.17468	191068
13.18095	168122
13.18720	151703
13.19345	146126
13.19972	137823
13.20597	140181
13.21222	143072
13.21848	158514
13.22473	170199
13.23098	206719
13.23725	228449
13.24350	236757
13.24975	230868
13.25602	226476
13.26227	239169
13.26852	245822
13.27478	222443
13.28103	197891
13.28728	181500
13.29355	178871
13.29980	193550
13.30605	202604
13.31232	199388
13.31857	174613
13.32482	152766
13.33108	140011
13.33733	139827
13.34358	156568
13.34985	180605
13.35610	184305
13.36235	178067
13.36862	160587
13.37487	139036
13.38112	135636
13.38737	125324
13.39363	113675
13.39988	116940
13.40613	120640
13.41240	130395
13.41865	138270
13.42490	166447
13.43117	195293
13.43742	236047
13.44367	254845
13.44993	248807
13.45618	213046
13.46243	181787
13.46870	154188
13.47495	153794
13.48120	157884
13.48747	163195
13.49372	168702
13.49997	167098
13.50623	163353
13.51248	171942
13.51873	180649
13.52500	190260
13.53125	210444
13.53750	252678
13.54377	423457
13.55002	750629
13.55627	1122699
13.56253	1206643
13.56878	932906
13.57503	524564
13.58130	303499
13.58755	233046
13.59380	234642
13.60007	280489
13.60632	320251
13.61257	332377
13.61882	325051
13.62508	293221
13.63133	253223
13.63758	216206
13.64385	180412
13.65010	165076
13.65635	150251
13.66262	147764
13.66887	151381
13.67512	161047
13.68138	178226
13.68763	193166
13.69388	193737
13.70015	184296
13.70640	169602
13.71265	159776
13.71892	148056
13.72517	154107
13.73142	157112
13.73768	159365
13.74393	177347
13.75018	265895
13.75645	486268
13.76270	921028
13.76895	1327971
13.77522	1214823
13.78147	802238
13.78772	391285
13.79398	233694
13.80023	217552
13.80648	281446
13.81275	462828
13.81900	895859
13.82525	1525278
13.83150	2027705
13.83777	1832223
13.84402	1212503
13.85027	689252
13.85653	451507
13.86278	335569
13.86903	261672
13.87530	238174
13.88155	320418
13.88780	603851
13.89407	1362457
13.90032	2977170
13.90657	5674719
13.91283	8243962
13.91908	9015965
13.92533	6551441
13.93160	3080989
13.93785	1036324
13.94410	355249
13.95037	192085
13.95662	174589
13.96287	167021
13.96913	159769
13.97538	156188
13.98163	163346
13.98790	179270
13.99415	196843
14.00040	231694
14.00667	276713
14.01292	309906
14.01917	320494
14.02543	262441
14.03168	204080
14.03793	170398
14.04420	163251
14.05045	182094
14.05670	203943
14.06295	236132
14.06922	277646
14.07547	296424
14.08172	276131
14.08798	236465
14.09423	205462
14.10048	185181
14.10675	174862
14.11300	170123
14.11925	174333
14.12552	170582
14.13177	166097
14.13802	151268
14.14428	136254
14.15053	132173
14.15678	142558
14.16305	150480
14.16930	145373
14.17555	138655
14.18182	129928
14.18807	134928
14.19432	146384
14.20058	158055
14.20683	179589
14.21308	234074
14.21935	330349
14.22560	453422
14.23185	528028
14.23812	502608
14.24437	350583
14.25062	218245
14.25688	160934
14.26313	157880
14.26938	172919
14.27563	193422
14.28190	206264
14.28815	247049
14.29440	276169
14.30067	303932
14.30692	318820
14.31317	368215
14.31943	529393
14.32568	804486
14.33193	903071
14.33820	747207
14.34445	472311
14.35070	282300
14.35697	205695
14.36322	185560
14.36947	175125
14.37573	182726
14.38198	192482
14.38823	210984
14.39450	241249
14.40075	289960
14.40700	310324
14.41327	303982
14.41952	293722
14.42577	273823
14.43203	250610
14.43828	225035
14.44453	237511
14.45080	288557
14.45705	416840
14.46330	621502
14.46957	884187
14.47582	1275667
14.48207	1430163
14.48832	1328423
14.49458	943987
14.50083	580974
14.50708	312322
14.51335	238739
14.51960	239770
14.52585	258761
14.53212	265904
14.53837	264401
14.54462	238009
14.55088	232169
14.55713	227415
14.56338	243115
14.56965	262672
14.57590	273093
14.58215	252869
14.58842	215497
14.59467	192107
14.60092	192516
14.60718	200550
14.61343	206662
14.61968	205174
14.62595	187084
14.63220	198065
14.63845	235471
14.64472	307728
14.65097	382296
14.65722	367501
14.66348	342054
14.66973	312968
14.67598	262637
14.68225	273557
14.68850	292188
14.69475	364815
14.70102	438382
14.70727	480864
14.71352	487506
14.71977	550422
14.72603	803331
14.73228	1336958
14.73853	1958880
14.74480	2215649
14.75105	1875025
14.75730	1317123
14.76357	841233
14.76982	513357
14.77607	289731
14.78233	198892
14.78858	192259
14.79483	227371
14.80110	310256
14.80735	430666
14.81360	501116
14.81987	424023
14.82612	313673
14.83237	201762
14.83863	142504
14.84488	135127
14.85113	139344
14.85740	131015
14.86365	141058
14.86990	144664
14.87617	149036
14.88242	162735
14.88867	156481
14.89493	140350
14.90118	145762
14.90743	150762
14.91370	177933
14.91995	213118
14.92620	259484
14.93245	280691
14.93872	281503
14.94497	263896
14.95122	249987
14.95748	240475
14.96373	259270
14.96998	269567
14.97625	306656
14.98250	337260
14.98875	337124
14.99502	317572
15.00127	299353
15.00752	281113
15.01378	261274
15.02003	241652
15.02628	243935
15.03255	247784
15.03880	271740
15.04505	297554
15.05132	299510
15.05757	320918
15.06382	323390
15.07008	330083
15.07633	328634
15.08258	358015
15.08885	371708
15.09510	425924
15.10135	466543
15.10762	505376
15.11387	526083
15.12012	622631
15.12638	757869
15.13263	902170
15.13888	1059556
15.14513	1187830
15.15140	1360276
15.15765	1933057
15.16390	3577547
15.17017	6579584
15.17642	8989319
15.18267	9015411
15.18893	5795872
15.19518	2625409
15.20143	947812
15.20770	381329
15.21395	239511
15.22020	199714
15.22647	182018
15.23272	194991
15.23897	195996
15.24523	204820
15.25148	209068
15.25773	199538
15.26400	207849
15.27025	219049
15.27650	201823
15.28277	195662
15.28902	201993
15.29527	195801
15.30153	201448
15.30778	200521
15.31403	218251
15.32030	242335
15.32655	298418
15.33280	300223
15.33907	269360
15.34532	223633
15.35157	215474
15.35783	240181
15.36408	262229
15.37033	260776
15.37658	246066
15.38285	217690
15.38910	178901
15.39535	179389
15.40162	179540
15.40787	179322
15.41412	174837
15.42038	190263
15.42663	214843
15.43288	241340
15.43915	285075
15.44540	380739
15.45165	518075
15.45792	572407
15.46417	522322
15.47042	429920
15.47668	313771
15.48293	236824
15.48918	201178
15.49545	196072
15.50170	219247
15.50795	319867
15.51422	486366
15.52047	839243
15.52672	1508354
15.53298	2706328
15.53923	4679805
15.54548	8088651
15.55175	1.18816E+07
15.55800	1.412088E+07
15.56425	1.185946E+07
15.57052	5593643
15.57677	1611682
15.58302	538229
15.58927	367091
15.59553	354529
15.60178	356597
15.60803	330110
15.61430	299187
15.62055	273092
15.62680	295837
15.63307	340294
15.63932	356023
15.64557	323748
15.65183	268982
15.65808	241411
15.66433	235331
15.67060	268589
15.67685	326985
15.68310	369848
15.68937	359344
15.69562	327077
15.70187	299915
15.70813	266123
15.71438	238285
15.72063	211928
15.72690	197409
15.73315	204024
15.73940	218724
15.74567	234568
15.75192	242308
15.75817	223258
15.76443	194488
15.77068	178974
15.77693	170879
15.78320	189338
15.78945	221998
15.79570	256921
15.80195	263400
15.80822	231881
15.81447	205751
15.82072	193955
15.82698	212329
15.83323	256092
15.83948	340796
15.84575	454701
15.85200	505933
15.85825	436959
15.86452	310219
15.87077	233467
15.87702	215815
15.88328	197495
15.88953	191490
15.89578	183733
15.90205	177056
15.90830	166377
15.91455	160608
15.92082	157837
15.92707	161918
15.93332	160761
15.93958	165882
15.94583	183307
15.95208	229297
15.95835	325131
15.96460	452907
15.97085	505672
15.97712	459748
15.98337	324065
15.98962	205396
15.99588	157733
16.00213	161323
16.00838	195085
16.01465	249482
16.02090	324333
16.02715	449613
16.03340	726274
16.03967	1199542
16.04592	1683391
16.05217	2261194
16.05843	2352771
16.06468	1873996
16.07093	1675043
16.07720	2007964
16.08345	2677116
16.08970	2764582
16.09597	2199162
16.10222	1551984
16.10847	1107167
16.11473	978499
16.12098	1033949
16.12723	1123279
16.13350	1029093
16.13975	781210
16.14600	515389
16.15227	377668
16.15852	343470
16.16477	364128
16.17103	368653
16.17728	347988
16.18353	341573
16.18980	382905
16.19605	459338
16.20230	483353
16.20857	390847
16.21482	274123
16.22107	199156
16.22733	167612
16.23358	163478
16.23983	165830
16.24608	178516
16.25235	200862
16.25860	222875
16.26485	231627
16.27112	215068
16.27737	193324
16.28362	166786
16.28988	151168
16.29613	140659
16.30238	139073
16.30865	143851
16.31490	148009
16.32115	154287
16.32742	165573
16.33367	176416
16.33992	189703
16.34618	194678
16.35243	203240
16.35868	203927
16.36495	189010
16.37120	177625
16.37745	172492
16.38372	164469
16.38997	164882
16.39622	163401
16.40248	176072
16.40873	184842
16.41498	197737
16.42125	220538
16.42750	269233
16.43375	381289
16.44002	593663
16.44627	920840
16.45252	1116789
16.45878	1131140
16.46503	1016999
16.47128	921559
16.47753	779305
16.48380	618882
16.49005	490853
16.49630	414309
16.50257	394483
16.50882	428659
16.51507	496522
16.52133	637055
16.52758	726997
16.53383	706291
16.54010	701672
16.54635	615374
16.55260	584882
16.55887	555192
16.56512	430261
16.57137	376860
16.57763	335129
16.58388	327337
16.59013	317338
16.59640	310398
16.60265	299717
16.60890	309413
16.61517	318787
16.62142	312867
16.62767	322030
16.63393	349053
16.64018	383772
16.64643	444910
16.65270	489698
16.65895	480977
16.66520	400498
16.67147	342350
16.67772	316303
16.68397	302244
16.69022	294876
16.69648	275683
16.70273	254818
16.70898	239745
16.71525	225492
16.72150	239891
16.72775	271213
16.73402	299741
16.74027	341818
16.74652	443290
16.75278	658901
16.75903	1146127
16.76528	2197059
16.77155	4924040
16.77780	9189330
16.78405	1.226844E+07
16.79032	1.313344E+07
16.79657	1.082736E+07
16.80282	7810207
16.80908	5291603
16.81533	5462957
16.82158	6397111
16.82785	8048814
16.83410	1.075137E+07
16.84035	1.378148E+07
16.84662	1.565819E+07
16.85287	1.534611E+07
16.85912	1.220967E+07
16.86538	8654369
16.87163	6351442
16.87788	6069168
16.88415	7457059
16.89040	9529237
16.89665	1.096163E+07
16.90292	1.052747E+07
16.90917	8756431
16.91542	6203089
16.92167	4410677
16.92793	3641766
16.93418	3806425
16.94043	4005139
16.94670	3662972
16.95295	3306793
16.95920	2943094
16.96547	2557077
16.97172	2136694
16.97797	1658520
16.98423	1266856
16.99048	1070120
16.99673	1054235
17.00300	1327216
17.00925	2356645
17.01550	4894028
17.02177	9229071
17.02802	1.458378E+07
17.03427	2.093279E+07
17.04053	2.763212E+07
17.04678	3.53479E+07
17.05303	4.192532E+07
17.05930	4.79556E+07
17.06555	5.107817E+07
17.07180	5.113652E+07
17.07807	4.937558E+07
17.08432	4.651162E+07
17.09057	4.299481E+07
17.09683	4.008438E+07
17.10308	3.836181E+07
17.10933	3.785891E+07
17.11560	3.854385E+07
17.12185	4.692679E+07
17.12810	1.370958E+07
17.13435	1.039656E+07
17.14062	1.021205E+07
17.14687	9450398
17.15312	1.005537E+07
17.15938	1.509443E+07
17.16563	2.495973E+07
17.17188	3.706782E+07
17.17815	4.694999E+07
17.18440	5.04057E+07
17.19065	5.007778E+07
17.19692	4.096942E+07
17.20317	1.467106E+07
17.20942	3930998
17.21568	3509044
17.22193	4566546
17.22818	5584007
17.23445	7652212
17.24070	1.275069E+07
17.24695	2.159892E+07
17.25322	3.469592E+07
17.25947	4.452126E+07
17.26572	5.016246E+07
17.27198	5.077E+07
17.27823	4.467155E+07
17.28448	2.117658E+07
17.29075	7474166
17.29700	7613023
17.30325	1.134315E+07
17.30952	1.194579E+07
17.31577	9732864
17.32202	5421311
17.32828	2357318
17.33453	1099766
17.34078	795194
17.34705	713212
17.35330	685567
17.35955	652909
17.36580	621071
17.37207	620665
17.37832	662465
17.38457	718131
17.39083	762385
17.39708	837145
17.40333	965686
17.40960	1281018
17.41585	1739446
17.42210	2071427
17.42837	1939321
17.43462	1674863
17.44087	1501278
17.44713	1815753
17.45338	2575167
17.45963	3360274
17.46590	3715962
17.47215	2841689
17.47840	1779078
17.48467	1201214
17.49092	1041285
17.49717	1135919
17.50343	918302
17.50968	888138
17.51593	1055803
17.52220	1247383
17.52845	1272808
17.53470	1047059
17.54097	737112
17.54722	584467
17.55347	641924
17.55973	1000753
17.56598	2005959
17.57223	4381141
17.57848	8929980
17.58475	1.322317E+07
17.59100	1.380865E+07
17.59725	9851392
17.60352	4921358
17.60977	1885326
17.61602	1103879
17.62228	1202438
17.62853	1355545
17.63478	1192065
17.64105	874063
17.64730	603912
17.65355	449962
17.65982	390808
17.66607	370333
17.67232	358688
17.67858	366069
17.68483	393178
17.69108	417909
17.69735	423681
17.70360	419620
17.70985	388196
17.71612	365128
17.72237	334697
17.72862	321742
17.73488	345387
17.74113	382904
17.74738	425420
17.75365	430415
17.75990	436638
17.76615	460157
17.77242	542847
17.77867	694712
17.78492	884950
17.79117	1185650
17.79743	1629309
17.80368	2044184
17.80993	2270179
17.81620	2191483
17.82245	1761956
17.82870	1321731
17.83497	953249
17.84122	821712
17.84747	811381
17.85373	979591
17.85998	2007525
17.86623	4622750
17.87250	9335481
17.87875	1.534694E+07
17.88500	1.765795E+07
17.89127	1.400174E+07
17.89752	7226384
17.90377	2810815
17.91003	994680
17.91628	616960
17.92253	546316
17.92880	525096
17.93505	474659
17.94130	456732
17.94757	455806
17.95382	463463
17.96007	477347
17.96633	492552
17.97258	471940
17.97883	440047
17.98510	423138
17.99135	435523
17.99760	514368
18.00387	679915
18.01012	831333
18.01637	887739
18.02262	791065
18.02888	650795
18.03513	530809
18.04138	472227
18.04765	441640
18.05390	410282
18.06015	365212
18.06642	339028
18.07267	327512
18.07892	331664
18.08518	360499
18.09143	408151
18.09768	467178
18.10395	496300
18.11020	493242
18.11645	500544
18.12272	648337
18.12897	1190736
18.13522	2601304
18.14148	4863160
18.14773	6845208
18.15398	6000241
18.16025	3842103
18.16650	1837196
18.17275	823567
18.17902	487234
18.18527	397856
18.19152	355509
18.19778	347343
18.20403	378508
18.21028	448311
18.21655	551276
18.22280	594480
18.22905	544001
18.23530	445755
18.24157	379277
18.24782	347511
18.25407	332477
18.26033	354777
18.26658	397048
18.27283	479089
18.27910	584625
18.28535	846080
18.29160	1353807
18.29787	2049524
18.30412	2441542
18.31037	2346312
18.31663	1575951
18.32288	803838
18.32913	453917
18.33540	313663
18.34165	265860
18.34790	259288
18.35417	251454
18.36042	255731
18.36667	259249
18.37293	269673
18.37918	302656
18.38543	364161
18.39170	419415
18.39795	431920
18.40420	386688
18.41047	337489
18.41672	305164
18.42297	277921
18.42923	267258
18.43548	254916
18.44173	239610
18.44798	240336
18.45425	245581
18.46050	259636
18.46675	278572
18.47302	292431
18.47927	292942
18.48552	267456
18.49178	249205
18.49803	245099
18.50428	241833
18.51055	246207
18.51680	250448
18.52305	254819
18.52932	258204
18.53557	257413
18.54182	262496
18.54808	262793
18.55433	264758
18.56058	261450
18.56685	257348
18.57310	252292
18.57935	247395
18.58562	238878
18.59187	230476
18.59812	227329
18.60438	234070
18.61063	235125
18.61688	241821
18.62315	245596
18.62940	250648
18.63565	263531
18.64192	278982
18.64817	287586
18.65442	283265
18.66068	259710
18.66693	253745
18.67318	250696
18.67943	250411
18.68570	240468
18.69195	238733
18.69820	247622
18.70447	266587
18.71072	291584
18.71697	322381
18.72323	326667
18.72948	294660
18.73573	251324
18.74200	231560
18.74825	228843
18.75450	225166
18.76077	223433
18.76702	225336
18.77327	228912
18.77953	231665
18.78578	236402
18.79203	224798
18.79830	220500
18.80455	216998
18.81080	222253
18.81707	225579
18.82332	226094
18.82957	236261
18.83583	240753
18.84208	247421
18.84833	269642
18.85460	353558
18.86085	720609
18.86710	1758307
18.87337	3707926
18.87962	6240041
18.88587	8362837
18.89212	9693094
18.89838	9990080
18.90463	9222503
18.91088	6860030
18.91715	3492937
18.92340	1393343
18.92965	666401
18.93592	569410
18.94217	598579
18.94842	589622
18.95468	492813
18.96093	369148
18.96718	286208
18.97345	241825
18.97970	222457
18.98595	221836
18.99222	220593
18.99847	222126
19.00472	241400
19.01098	248981
19.01723	246514
19.02348	248552
19.02975	251778
19.03600	261806
19.04225	281142
19.04852	295206
19.05477	289743
19.06102	259952
19.06728	234240
19.07353	220626
19.07978	205371
19.08605	203371
19.09230	208866
19.09855	216361
19.10482	227342
19.11107	233125
19.11732	238864
19.12357	245851
19.12983	253924
19.13608	270384
19.14233	271866
19.14860	260582
19.15485	255503
19.16110	238517
19.16737	226919
19.17362	221111
19.17987	215136
19.18613	217657
19.19238	215670
19.19863	211741
19.20490	207045
19.21115	195476
19.21740	188783
19.22367	186002
19.22992	185744
19.23617	183741
19.24243	187398
19.24868	195790
19.25493	191715
19.26120	190813
19.26745	183590
19.27370	188763
19.27997	191801
19.28622	195030
19.29247	198467
19.29873	201467
19.30498	187420
19.31123	179895
19.31750	173355
19.32375	172249
19.33000	183993
19.33625	193281
19.34252	203159
19.34877	225936
19.35502	237028
19.36128	232940
19.36753	220517
19.37378	217812
19.38005	222040
19.38630	220190
19.39255	229672
19.39882	247731
19.40507	263619
19.41132	251455
19.41758	231785
19.42383	205104
19.43008	192450
19.43635	185662
19.44260	186934
19.44885	186552
19.45512	180671
19.46137	176255
19.46762	173884
19.47388	176651
19.48013	172500
19.48638	176531
19.49265	173465
19.49890	191183
19.50515	212055
19.51142	225347
19.51767	247481
19.52392	249709
19.53018	236318
19.53643	214452
19.54268	214946
19.54895	226981
19.55520	234008
19.56145	234492
19.56770	209934
19.57397	195625
19.58022	181590
19.58647	182196
19.59273	186824
19.59898	180313
19.60523	175355
19.61150	175243
19.61775	180568
19.62400	192935
19.63027	214367
19.63652	242825
19.64277	246989
19.64903	225146
19.65528	206453
19.66153	205377
19.66780	228689
19.67405	279594
19.68030	329501
19.68657	349757
19.69282	340297
19.69907	321707
19.70533	310912
19.71158	313911
19.71783	289322
19.72410	252125
19.73035	228331
19.73660	221033
19.74287	216731
19.74912	220836
19.75537	220979
19.76163	214713
19.76788	218821
19.77413	221482
19.78038	222844
19.78665	198945
19.79290	190641
19.79915	189155
19.80542	184860
19.81167	182904
19.81792	177066
19.82418	171511
19.83043	168688
19.83668	169050
19.84295	174855
19.84920	176384
19.85545	206616
19.86172	235055
19.86797	266873
19.87422	270602
19.88048	237539
19.88673	220314
19.89298	207692
19.89925	254709
19.90550	539481
19.91175	1674077
19.91802	4042873
19.92427	6449522
19.93052	7634023
19.93678	6520104
19.94303	3899196
19.94928	1591702
19.95555	560900
19.96180	292082
19.96805	250222
19.97432	257891
19.98057	269140
19.98682	267286
19.99308	245571
19.99933	218237
20.00558	195131
20.01183	193044
20.01810	186101
20.02435	158498
20.03060	152977
20.03687	151966
20.04312	149846
20.04937	159590
20.05563	158977
20.06188	153669
20.06813	151198
20.07440	149613
20.08065	155023
20.08690	172452
20.09317	205265
20.09942	223916
20.10567	212872
20.11193	190913
20.11818	169276
20.12443	153795
20.13070	148834
20.13695	147745
20.14320	143942
20.14947	151291
20.15572	155436
20.16197	169019
20.16823	170328
20.17448	168999
20.18073	166487
20.18700	162386
20.19325	162805
20.19950	158928
20.20577	164037
20.21202	179207
20.21827	215129
20.22452	276850
20.23078	358591
20.23703	417174
20.24328	401895
20.24955	328262
20.25580	256721
20.26205	208055
20.26832	193104
20.27457	203118
20.28082	240421
20.28708	345179
20.29333	563867
20.29958	977176
20.30585	1416021
20.31210	1466316
20.31835	1082493
20.32462	652954
20.33087	377811
20.33712	262858
20.34338	238311
20.34963	233748
20.35588	228172
20.36215	204796
20.36840	189384
20.37465	182717
20.38092	176372
20.38717	172499
20.39342	171352
20.39968	166252
20.40593	175020
20.41218	193955
20.41845	262901
20.42470	460589
20.43095	969231
20.43720	1776371
20.44347	2582542
20.44972	2760640
20.45597	2009249
20.46223	1157244
20.46848	669168
20.47473	594674
20.48100	727952
20.48725	912666
20.49350	877950
20.49977	641904
20.50602	416266
20.51227	290281
20.51853	240523
20.52478	226553
20.53103	222200
20.53730	229385
20.54355	248055
20.54980	303915
20.55607	355757
20.56232	354809
20.56857	342924
20.57483	420458
20.58108	718046
20.58733	1323981
20.59360	1877255
20.59985	1950731
20.60610	1429201
20.61237	743199
20.61862	389994
20.62487	250090
20.63113	220800
20.63738	208523
20.64363	197788
20.64990	192372
20.65615	190591
20.66240	190915
20.66865	194341
20.67492	190929
20.68117	192525
20.68742	186643
20.69368	186935
20.69993	198477
20.70618	275904
20.71245	489873
20.71870	878490
20.72495	1279348
20.73122	1375816
20.73747	1092118
20.74372	702146
20.74998	486596
20.75623	525726
20.76248	794806
20.76875	1100997
20.77500	1258668
20.78125	1118178
20.78752	751389
20.79377	439379
20.80002	295431
20.80628	239949
20.81253	218023
20.81878	202510
20.82505	192778
20.83130	185637
20.83755	188077
20.84382	184739
20.85007	190745
20.85632	185410
20.86258	191302
20.86883	174164
20.87508	176313
20.88133	172524
20.88760	169487
20.89385	170206
20.90010	168659
20.90637	170225
20.91262	170580
20.91887	180919
20.92513	242385
20.93138	431285
20.93763	900441
20.94390	1588346
20.95015	2217672
20.95640	2025166
20.96267	1377486
20.96892	809676
20.97517	460321
20.98143	322760
20.98768	257323
20.99393	225060
21.00020	212881
21.00645	208871
21.01270	210210
21.01897	213505
21.02522	212304
21.03147	232834
21.03773	251945
21.04398	272163
21.05023	265843
21.05650	256409
21.06275	231394
21.06900	237610
21.07527	261919
21.08152	287491
21.08777	280396
21.09402	249757
21.10028	213145
21.10653	191440
21.11278	195987
21.11905	200001
21.12530	202469
21.13155	194007
21.13782	189875
21.14407	182381
21.15032	177736
21.15658	171644
21.16283	167857
21.16908	164919
21.17535	161726
21.18160	164147
21.18785	175932
21.19412	178907
21.20037	190856
21.20662	199691
21.21288	207196
21.21913	203009
21.22538	192473
21.23165	187630
21.23790	195144
21.24415	208068
21.25042	205945
21.25667	191686
21.26292	195743
21.26918	202745
21.27543	227094
21.28168	273965
21.28795	290181
21.29420	294252
21.30045	251568
21.30672	227473
21.31297	219761
21.31922	254623
21.32547	316576
21.33173	343418
21.33798	329312
21.34423	273354
21.35050	221875
21.35675	215162
21.36300	278576
21.36927	336505
21.37552	367848
21.38177	326037
21.38803	272143
21.39428	219961
21.40053	199479
21.40680	201009
21.41305	243226
21.41930	302509
21.42557	383605
21.43182	424214
21.43807	401663
21.44433	334019
21.45058	301975
21.45683	351730
21.46310	474144
21.46935	506214
21.47560	462323
21.48187	356821
21.48812	256128
21.49437	189678
21.50063	170402
21.50688	157419
21.51313	155925
21.51940	156077
21.52565	152951
21.53190	167894
21.53815	176915
21.54442	189362
21.55067	185193
21.55692	179050
21.56318	183848
21.56943	208772
21.57568	240812
21.58195	253720
21.58820	235631
21.59445	210510
21.60072	188333
21.60697	172735
21.61322	171495
21.61948	158099
21.62573	154861
21.63198	148295
21.63825	139814
21.64450	141033
21.65075	141888
21.65702	144266
21.66327	149897
21.66952	154252
21.67578	162223
21.68203	163751
21.68828	171234
21.69455	166529
21.70080	155211
21.70705	145086
21.71332	145712
21.71957	159846
21.72582	169428
21.73208	183502
21.73833	185725
21.74458	178602
21.75083	175579
21.75710	177541
21.76335	181414
21.76960	167128
21.77587	159606
21.78212	153949
21.78837	152527
21.79463	165034
21.80088	184924
21.80713	237180
21.81340	271957
21.81965	278553
21.82590	255007
21.83217	211110
21.83842	177955
21.84467	164139
21.85093	156707
21.85718	154495
21.86343	149732
21.86970	153531
21.87595	149578
21.88220	145783
21.88847	147969
21.89472	160837
21.90097	196880
21.90723	264192
21.91348	316850
21.91973	328390
21.92600	288602
21.93225	257408
21.93850	250195
21.94477	242523
21.95102	210141
21.95727	187429
21.96353	172543
21.96978	180516
21.97603	210129
21.98228	236778
21.98855	239743
21.99480	221241
22.00105	202937
22.00732	201885
22.01357	205028
22.01982	204512
22.02608	211095
22.03233	225691
22.03858	255940
22.04485	286295
22.05110	300570
22.05735	301323
22.06362	299918
22.06987	333946
22.07612	353836
22.08238	355679
22.08863	303018
22.09488	239725
22.10115	203492
22.10740	192552
22.11365	193515
22.11992	203789
22.12617	214451
22.13242	199793
22.13868	193533
22.14493	176918
22.15118	175735
22.15745	173525
22.16370	186559
22.16995	191550
22.17622	189467
22.18247	181584
22.18872	173381
22.19497	170837
22.20123	161686
22.20748	165849
22.21373	169194
22.22000	170753
22.22625	186788
22.23250	213738
22.23877	284974
22.24502	392242
22.25127	524860
22.25753	702962
22.26378	714902
22.27003	645916
22.27630	504507
22.28255	399269
22.28880	343495
22.29507	312407
22.30132	279662
22.30757	245558
22.31383	220352
22.32008	196382
22.32633	191879
22.33260	179578
22.33885	190616
22.34510	235912
22.35137	376155
22.35762	807870
22.36387	1393370
22.37013	1827940
22.37638	1633481
22.38263	1112996
22.38890	572039
22.39515	305903
22.40140	210578
22.40767	196479
22.41392	187453
22.42017	192538
22.42642	197765
22.43268	213640
22.43893	241265
22.44518	299443
22.45145	440668
22.45770	636700
22.46395	781896
22.47022	742844
22.47647	589065
22.48272	438253
22.48898	377514
22.49523	344003
22.50148	327964
22.50775	282002
22.51400	243583
22.52025	232841
22.52652	243012
22.53277	314367
22.53902	481617
22.54528	694971
22.55153	836537
22.55778	799065
22.56405	611946
22.57030	432947
22.57655	316353
22.58282	245234
22.58907	213465
22.59532	196175
22.60158	183047
22.60783	173602
22.61408	174125
22.62035	174310
22.62660	174639
22.63285	183756
22.63910	195816
22.64537	201306
22.65162	210714
22.65787	203501
22.66413	204452
22.67038	198336
22.67663	200887
22.68290	201546
22.68915	199782
22.69540	192961
22.70167	188301
22.70792	183277
22.71417	180002
22.72043	176904
22.72668	182302
22.73293	175889
22.73920	183693
22.74545	177595
22.75170	181546
22.75797	188616
22.76422	204888
22.77047	222578
22.77673	303075
22.78298	617359
22.78923	1714581
22.79550	4623587
22.80175	8871826
22.80800	1.328602E+07
22.81427	1.454389E+07
22.82052	1.050069E+07
22.82677	4822951
22.83303	1790337
22.83928	708067
22.84553	385864
22.85180	283325
22.85805	248407
22.86430	236539
22.87055	223325
22.87682	217874
22.88307	211921
22.88932	201902
22.89558	196579
22.90183	197256
22.90808	196191
22.91435	189363
22.92060	188434
22.92685	184623
22.93312	184240
22.93937	183678
22.94562	188008
22.95188	186882
22.95813	188921
22.96438	214455
22.97065	247768
22.97690	265050
22.98315	269250
22.98942	258009
22.99567	258276
23.00192	240909
23.00818	222597
23.01443	218849
23.02068	217579
23.02695	209444
23.03320	203114
23.03945	204193
23.04572	206096
23.05197	208723
23.05822	210144
23.06448	215483
23.07073	229304
23.07698	243809
23.08323	246901
23.08950	240914
23.09575	229634
23.10200	213110
23.10827	211160
23.11452	206727
23.12077	201028
23.12703	196616
23.13328	196173
23.13953	201539
23.14580	196456
23.15205	208700
23.15830	214057
23.16457	206558
23.17082	211475
23.17707	212073
23.18333	215138
23.18958	217969
23.19583	222777
23.20210	226829
23.20835	225625
23.21460	222937
23.22087	215162
23.22712	216302
23.23337	210528
23.23963	220733
23.24588	224432
23.25213	228218
23.25840	223207
23.26465	217393
23.27090	221174
23.27717	213827
23.28342	213185
23.28967	214920
23.29593	216187
23.30218	224614
23.30843	221736
23.31468	224795
23.32095	225368
23.32720	219635
23.33345	218607
23.33972	223024
23.34597	223031
23.35222	220278
23.35848	221151
23.36473	225598
23.37098	237011
23.37725	260157
23.38350	281314
23.38975	293589
23.39602	297501
23.40227	278156
23.40852	264117
23.41478	244323
23.42103	236203
23.42728	230817
23.43355	223733
23.43980	231388
23.44605	231591
23.45232	226633
23.45857	232938
23.46482	232529
23.47108	242762
23.47733	250713
23.48358	267653
23.48985	272525
23.49610	301283
23.50235	344193
23.50862	440124
23.51487	561384
23.52112	635268
23.52737	612280
23.53363	512479
23.53988	384835
23.54613	304593
23.55240	278301
23.55865	264950
23.56490	268869
23.57117	283216
23.57742	302573
23.58367	348104
23.58993	413739
23.59618	483519
23.60243	527056
23.60870	518004
23.61495	456171
23.62120	393186
23.62747	338248
23.63372	305341
23.63997	280178
23.64623	268543
23.65248	254991
23.65873	248750
23.66500	247992
23.67125	245070
23.67750	249380
23.68377	254636
23.69002	259352
23.69627	264609
23.70253	266903
23.70878	282123
23.71503	342411
23.72130	435092
23.72755	542622
23.73380	618542
23.74005	559066
23.74632	460545
23.75257	370846
23.75882	311690
23.76508	287953
23.77133	284625
23.77758	282840
23.78385	277373
23.79010	274767
23.79635	275714
23.80262	275955
23.80887	274121
23.81512	275306
23.82138	275924
23.82763	273595
23.83388	273400
23.84015	276898
23.84640	276582
23.85265	277606
23.85892	275260
23.86517	283423
23.87142	290438
23.87768	315325
23.88393	356092
23.89018	366659
23.89645	367183
23.90270	352007
23.90895	330696
23.91522	297410
23.92147	291062
23.92772	287133
23.93398	302315
23.94023	308194
23.94648	415896
23.95275	772593
23.95900	1604631
23.96525	2887853
23.97150	3901242
23.97777	3917073
23.98402	2721508
23.99027	1716797
23.99653	1097831
24.00278	806087
24.00903	611779
24.01530	479344
24.02155	389021
24.02780	342017
24.03407	325716
24.04032	316108
24.04657	322570
24.05283	338859
24.05908	378869
24.06533	432523
24.07160	464926
24.07785	477628
24.08410	494281
24.09037	450810
24.09662	420177
24.10287	397787
24.10913	383769
24.11538	390612
24.12163	395334
24.12790	384734
24.13415	368112
24.14040	349142
24.14667	347346
24.15292	337008
24.15917	335393
24.16543	342559
24.17168	395093
24.17793	471548
24.18418	549907
24.19045	789724
24.19670	1445474
24.20295	3051163
24.20922	6810683
24.21547	1.22076E+07
24.22172	2.028894E+07
24.22798	2.878986E+07
24.23423	3.612497E+07
24.24048	4.141961E+07
24.24675	4.378031E+07
24.25300	4.449028E+07
24.25925	4.453447E+07
24.26552	4.207911E+07
24.27177	2.289766E+07
24.27802	6074925
24.28428	3188448
24.29053	2584874
24.29678	2312001
24.30305	2155935
24.30930	2075057
24.31555	2012351
24.32182	1995709
24.32807	2041967
24.33432	2141947
24.34058	2246723
24.34683	2296703
24.35308	2301931
24.35935	2412578
24.36560	2457408
24.37185	2493936
24.37812	2409434
24.38437	2392604
24.39062	2329834
24.39687	2184920
24.40313	2067007
24.40938	1954676
24.41563	1890585
24.42190	1806447
24.42815	1681120
24.43440	1615381
24.44067	1549380
24.44692	1484208
24.45317	1389129
24.45943	1305238
24.46568	1250819
24.47193	1193578
24.47820	1143272
24.48445	1101906
24.49070	1063257
24.49697	1050755
24.50322	1034878
24.50947	988477
24.51573	957743
24.52198	933614
24.52823	919838
24.53450	861558
24.54075	825348
24.54700	783864
24.55327	772955
24.55952	735633
24.56577	734295
24.57203	767333
24.57828	811449
24.58453	830139
24.59080	840426
24.59705	779779
24.60330	680508
24.60957	607848
24.61582	536440
24.62207	486051
24.62832	462452
24.63458	439839
24.64083	427012
24.64708	415699
24.65335	391297
24.65960	375199
24.66585	354637
24.67212	336416
24.67837	317085
24.68462	305149
24.69088	293627
24.69713	294470
24.70338	281164
24.70965	269815
24.71590	262472
24.72215	263639
24.72842	266251
24.73467	264620
24.74092	258045
24.74718	265390
24.75343	262710
24.75968	281570
24.76595	305657
24.77220	315856
24.77845	315827
24.78472	293452
24.79097	253474
24.79722	224912
24.80348	210708
24.80973	198723
24.81598	195061
24.82225	183313
24.82850	187375
24.83475	179659
24.84100	183157
24.84727	183085
24.85352	180909
24.85977	181002
24.86603	187718
24.87228	208526
24.87853	234079
24.88480	278944
24.89105	325504
24.89730	333170
24.90357	318528
24.90982	307786
24.91607	313446
24.92233	351175
24.92858	359817
24.93483	344339
24.94110	290690
24.94735	254210
24.95360	249575
24.95987	250388
24.96612	256612
24.97237	226784
24.97863	207436
24.98488	184677
24.99113	171707
24.99740	168628
25.00365	161501
25.00990	164132
25.01617	160149
25.02242	158372
25.02867	158056
25.03493	160685
25.04118	160167
25.04743	161589
25.05368	160756
25.05995	162501
25.06620	155057
25.07245	154926
25.07872	156304
25.08497	153279
25.09122	154856
25.09748	157309
25.10373	152747
25.10998	153057
25.11625	150660
25.12250	146675
25.12875	148173
25.13502	146501
25.14127	141873
25.14752	148098
25.15378	151892
25.16003	153177
25.16628	164893
25.17255	207807
25.17880	279901
25.18505	371712
25.19132	439447
25.19757	419770
25.20382	344985
25.21008	263986
25.21633	204281
25.22258	173407
25.22885	157163
25.23510	154482
25.24135	148887
25.24762	146832
25.25387	153450
25.26012	149788
25.26638	147631
25.27263	160473
25.27888	183439
25.28513	231536
25.29140	293093
25.29765	348149
25.30390	338099
25.31017	291177
25.31642	233369
25.32267	198006
25.32893	179297
25.33518	176088
25.34143	179643
25.34770	165088
25.35395	164275
25.36020	168068
25.36647	158021
25.37272	155266
25.37897	152580
25.38523	150331
25.39148	160536
25.39773	174716
25.40400	198389
25.41025	211354
25.41650	214984
25.42277	203299
25.42902	183180
25.43527	178246
25.44153	168589
25.44778	163664
25.45403	157417
25.46030	157375
25.46655	152102
25.47280	149406
25.47907	157961
25.48532	189935
25.49157	256774
25.49782	336457
25.50408	411362
25.51033	415791
25.51658	368456
25.52285	311445
25.52910	293540
25.53535	345520
25.54162	410348
25.54787	447341
25.55412	387626
25.56038	305985
25.56663	231385
25.57288	182003
25.57915	165370
25.58540	155846
25.59165	155691
25.59792	156558
25.60417	161844
25.61042	161528
25.61668	159877
25.62293	148935
25.62918	147058
25.63545	140449
25.64170	136503
25.64795	136056
25.65422	133095
25.66047	133783
25.66672	130101
25.67298	132045
25.67923	133283
25.68548	137321
25.69175	136685
25.69800	134035
25.70425	129146
25.71052	127046
25.71677	130635
25.72302	129657
25.72927	133678
25.73553	147337
25.74178	159971
25.74803	166687
25.75430	160378
25.76055	149342
25.76680	140529
25.77307	136072
25.77932	130435
25.78557	132787
25.79183	130638
25.79808	130967
25.80433	123987
25.81060	122955
25.81685	118598
25.82310	123723
25.82937	119483
25.83562	122434
25.84187	123530
25.84813	125736
25.85438	126079
25.86063	126354
25.86690	128966
25.87315	125189
25.87940	127700
25.88567	122354
25.89192	123328
25.89817	120620
25.90443	122091
25.91068	123577
25.91693	123726
25.92320	128302
25.92945	131568
25.93570	141313
25.94195	145120
25.94822	142573
25.95447	136181
25.96072	128460
25.96698	124866
25.97323	121064
25.97948	122376
25.98575	121608
25.99200	119789
25.99825	121390
26.00452	122888
26.01077	125500
26.01702	125949
26.02328	124992
26.02953	125351
26.03578	130667
26.04205	126550
26.04830	127117
26.05455	127226
26.06082	130668
26.06707	124229
26.07332	124656
26.07958	124966
26.08583	122781
26.09208	119023
26.09835	119887
26.10460	122115
26.11085	121764
26.11712	122529
26.12337	117510
26.12962	126030
26.13588	116658
26.14213	123165
26.14838	124008
26.15465	124039
26.16090	121173
26.16715	126571
26.17340	129846
26.17967	126034
26.18592	127863
26.19217	124686
26.19843	122362
26.20468	128635
26.21093	125184
26.21720	125271
26.22345	123936
26.22970	125727
26.23597	125347
26.24222	123771
26.24847	124382
26.25473	120999
26.26098	127110
26.26723	125260
26.27350	125339
26.27975	125800
26.28600	126217
26.29227	122918
26.29852	125491
26.30477	123743
26.31103	122091
26.31728	124004
26.32353	124949
26.32980	125861
26.33605	128025
26.34230	127734
26.34857	133643
26.35482	136118
26.36107	145699
26.36733	145846
26.37358	142102
26.37983	143317
26.38608	134806
26.39235	133395
26.39860	134908
26.40485	132537
26.41112	139941
26.41737	145286
26.42362	139588
26.42988	136373
26.43613	132605
26.44238	136656
26.44865	130456
26.45490	132352
26.46115	139777
26.46742	138582
26.47367	143236
26.47992	140602
26.48618	144275
26.49243	142155
26.49868	145201
26.50495	134984
26.51120	138434
26.51745	142108
26.52372	156931
26.52997	168838
26.53622	170775
26.54248	172397
26.54873	159920
26.55498	149923
26.56125	146028
26.56750	143869
26.57375	146275
26.58002	139976
26.58627	144061
26.59252	142803
26.59878	152234
26.60503	167425
26.61128	179141
26.61753	190332
26.62380	182460
26.63005	172910
26.63630	160264
26.64257	154178
26.64882	158070
26.65507	165255
26.66133	193477
26.66758	217431
26.67383	230196
26.68010	222941
26.68635	212476
26.69260	213781
26.69887	231368
26.70512	240981
26.71137	234994
26.71763	205297
26.72388	185703
26.73013	166765
26.73640	162008
26.74265	167516
26.74890	181709
26.75517	222109
26.76142	304107
26.76767	367961
26.77393	389853
26.78018	352679
26.78643	304233
26.79270	273860
26.79895	259057
26.80520	242255
26.81147	224721
26.81772	204051
26.82397	196652
26.83022	197739
26.83648	205943
26.84273	207934
26.84898	204932
26.85525	193114
26.86150	197663
26.86775	207865
26.87402	227253
26.88027	276001
26.88652	333541
26.89278	421000
26.89903	596183
26.90528	1236262
26.91155	3111858
26.91780	6277510
26.92405	1.164677E+07
26.93032	1.918348E+07
26.93657	2.318554E+07
26.94282	2.250812E+07
26.94908	1.511767E+07
26.95533	6726463
26.96158	2866033
26.96785	1644148
26.97410	1046301
26.98035	681660
26.98662	467736
26.99287	367010
26.99912	343113
27.00538	403754
27.01163	602907
27.01788	956801
27.02415	1347277
27.03040	1438666
27.03665	1150910
27.04290	818991
27.04917	548325
27.05542	434245
27.06167	394780
27.06793	382366
27.07418	345206
27.08043	314268
27.08670	285767
27.09295	269424
27.09920	260238
27.10547	248048
27.11172	245094
27.11797	259898
27.12423	311934
27.13048	410722
27.13673	494475
27.14300	516822
27.14925	452904
27.15550	376398
27.16177	304259
27.16802	273948
27.17427	267107
27.18053	273637
27.18678	268574
27.19303	259072
27.19930	252895
27.20555	246383
27.21180	245605
27.21807	248294
27.22432	242083
27.23057	230859
27.23683	236654
27.24308	249779
27.24933	259015
27.25560	271790
27.26185	262454
27.26810	241023
27.27435	233420
27.28062	230050
27.28687	230927
27.29312	222685
27.29938	227040
27.30563	230210
27.31188	233165
27.31815	240522
27.32440	237914
27.33065	227559
27.33692	230862
27.34317	233468
27.34942	233979
27.35568	247770
27.36193	246638
27.36818	245878
27.37445	241787
27.38070	235912
27.38695	239134
27.39322	243021
27.39947	263588
27.40572	301396
27.41198	324839
27.41823	317672
27.42448	301282
27.43075	266477
27.43700	261902
27.44325	248486
27.44952	231948
27.45577	224969
27.46202	223255
27.46828	218416
27.47453	218615
27.48078	225534
27.48703	231660
27.49330	228058
27.49955	220525
27.50580	218864
27.51207	214133
27.51832	215672
27.52457	217035
27.53083	213738
27.53708	218980
27.54333	225745
27.54960	223500
27.55585	213026
27.56210	213510
27.56837	206817
27.57462	215433
27.58087	210203
27.58713	213138
27.59338	213824
27.59963	215429
27.60590	211859
27.61215	219031
27.61840	212995
27.62467	217462
27.63092	222157
27.63717	226485
27.64343	220830
27.64968	218577
27.65593	213733
27.66220	219389
27.66845	219495
27.67470	223693
27.68097	217181
27.68722	220771
27.69347	222273
27.69972	221526
27.70598	229260
27.71223	242949
27.71848	244973
27.72475	257227
27.73100	255258
27.73725	249438
27.74352	243201
27.74977	243255
27.75602	233302
27.76228	247681
27.76853	241479
27.77478	241212
27.78105	241083
27.78730	235229
27.79355	231091
27.79982	262737
27.80607	285080
27.81232	278207
27.81858	270862
27.82483	270062
27.83108	276492
27.83735	287410
27.84360	303251
27.84985	317787
27.85612	345491
27.86237	364242
27.86862	362914
27.87488	365865
27.88113	343392
27.88738	333564
27.89365	313362
27.89990	302450
27.90615	305459
27.91242	304647
27.91867	289217
27.92492	286309
27.93117	290394
27.93743	289616
27.94368	284716
27.94993	281139
27.95620	288410
27.96245	301383
27.96870	283916
27.97497	285122
27.98122	298271
27.98747	307259
27.99373	304294
27.99998	304105
28.00623	300426
28.01250	302218
28.01875	297175
28.02500	292548
28.03127	287493
28.03752	319067
28.04377	324042
28.05003	323136
28.05628	310974
28.06253	319565
28.06880	316830
28.07505	321197
28.08130	312168
28.08757	312015
28.09382	323047
28.10007	315106
28.10633	318145
28.11258	326084
28.11883	323476
28.12510	313067
28.13135	317577
28.13760	314338
28.14385	331781
28.15012	327196
28.15637	316838
28.16262	317119
28.16888	328225
28.17513	320181
28.18138	316597
28.18765	313750
28.19390	327878
28.20015	335581
28.20642	328049
28.21267	331932
28.21892	333468
28.22518	324331
28.23143	336525
28.23768	324331
28.24395	325849
28.25020	328715
28.25645	340406
28.26272	343021
28.26897	336366
28.27522	342876
28.28148	342848
28.28773	351491
28.29398	358268
28.30025	364681
28.30650	378080
28.31275	372017
28.31902	396335
28.32527	385770
28.33152	402274
28.33778	399075
28.34403	404112
28.35028	422647
28.35655	421869
28.36280	434917
28.36905	419974
28.37530	436945
28.38157	440857
28.38782	436497
28.39407	429685
28.40033	421569
28.40658	426594
28.41283	415602
28.41910	411783
28.42535	419107
28.43160	397771
28.43787	396277
28.44412	394362
28.45037	388494
28.45663	377433
28.46288	383872
28.46913	371955
28.47540	376996
28.48165	362200
28.48790	351848
28.49417	359710
28.50042	350444
28.50667	348934
28.51293	363132
28.51918	348389
28.52543	354843
28.53170	353463
28.53795	334662
28.54420	336539
28.55047	351560
28.55672	352201
28.56297	330167
28.56923	338663
28.57548	347718
28.58173	345175
28.58798	337283
28.59425	346374
28.60050	331656
28.60675	333752
28.61302	343210
28.61927	350304
28.62552	343242
28.63178	346419
28.63803	328981
28.64428	328158
28.65055	336037
28.65680	328166
28.66305	342668
28.66932	331370
28.67557	326208
28.68182	326252
28.68808	338546
28.69433	337523
28.70058	327729
28.70685	335640
28.71310	338739
28.71935	325349
28.72562	335595
28.73187	334910
28.73812	327032
28.74438	323077
28.75063	323287
28.75688	320474
28.76315	333686
28.76940	326978
28.77565	319174
28.78192	334312
28.78817	333254
28.79442	319152
28.80068	330320
28.80693	331163
28.81318	329646
28.81943	315603
28.82570	320231
28.83195	327406
28.83820	331812
28.84447	316977
28.85072	317548
28.85697	329491
28.86323	318224
28.86948	330741
28.87573	318203
28.88200	329755
28.88825	317305
28.89450	316715
28.90077	316610
28.90702	314220
28.91327	318667
28.91953	313134
28.92578	329807
28.93203	312565
28.93830	324503
28.94455	327860
28.95080	330874
28.95707	314482
28.96332	323406
28.96957	312555
28.97583	322497
28.98208	320741
28.98833	303924
28.99460	297359
29.00085	296292
29.00710	297933
29.01337	298544
29.01962	295332
29.02587	305684
29.03212	303997
29.03838	294366
29.04463	303825
29.05088	293036
29.05715	295101
29.06340	318264
29.06965	318014
29.07592	302767
29.08217	293230
29.08842	298891
29.09468	287496
29.10093	306325
29.10718	290060
29.11345	278330
29.11970	299757
29.12595	288329
29.13222	290436
29.13847	286102
29.14472	283247
29.15098	282944
29.15723	288168
29.16348	267889
29.16975	259742
29.17600	246242
29.18225	251017
29.18852	243075
29.19477	254350
29.20102	241779
29.20728	251459
29.21353	244543
29.21978	251426
29.22605	265085
29.23230	277404
29.23855	271463
29.24482	270016
29.25107	275633
29.25732	272292
29.26357	258958
29.26983	260967
29.27608	256140
29.28233	256195
29.28860	247779
29.29485	251613
29.30110	253028
29.30737	243245
29.31362	251978
29.31987	243311
29.32613	250924
29.33238	254217
29.33863	244927
29.34490	253112
29.35115	241956
29.35740	243167
29.36367	249028
29.36992	243108
29.37617	252322
29.38243	237987
29.38868	250079
29.39493	249193
29.40120	242255
29.40745	241281
29.41370	235472
29.41997	246800
29.42622	243399
29.43247	237625
29.43873	242519
29.44498	249989
29.45123	237281
29.45750	248313
29.46375	246852
29.47000	241962
29.47625	237616
29.48252	238752
29.48877	236532
29.49502	247389
29.50128	244867
29.50753	245794
29.51378	237462
29.52005	244943
29.52630	234248
29.53255	247416
29.53882	235708
29.54507	241814
29.55132	234882
29.55758	247341
29.56383	247742
29.57008	239798
29.57635	240692
29.58260	246387
29.58885	245384
29.59512	239951
29.60137	240709
29.60762	237271
29.61388	245045
29.62013	237646
29.62638	234896
29.63265	236522
29.63890	248369
29.64515	246608
29.65142	237819
29.65767	244154
29.66392	234261
29.67018	245373
29.67643	240692
29.68268	248890
29.68893	235113
29.69520	240876
29.70145	240029
29.70770	243939
29.71397	241729
29.72022	233282
29.72647	238760
29.73273	232097
29.73898	237652
29.74523	233181
29.75150	236079
29.75775	240149
29.76400	231918
29.77027	241495
29.77652	233718
29.78277	244828
29.78903	241708
29.79528	236633
29.80153	242502
29.80780	243331
29.81405	232151
29.82030	230051
29.82657	241117
29.83282	236793
29.83907	230884
29.84533	233747
29.85158	230982
29.85783	235941
29.86410	236448
29.87035	230806
29.87660	244964
29.88287	235218
29.88912	231756
29.89537	237656
29.90163	243745
29.90788	234384
29.91413	233222
29.92038	233773
29.92665	242682
29.93290	232190
29.93915	232022
29.94542	234533
29.95167	236169
29.95792	228663
29.96418	238634
29.97043	230047
29.97668	238526
29.98295	231719
29.98920	239724
29.99545	229562
30.00172	228717
30.00797	225939
30.01422	238981
30.02048	230512
30.02673	237552
30.03298	239976
30.03925	231531
30.04550	237275
30.05175	229226
30.05802	236896
30.06427	227701
30.07052	229047
30.07678	235908
30.08303	235331
30.08928	236713
30.09555	232920
30.10180	227454
30.10805	229616
30.11432	239608
30.12057	227735
30.12682	228108
30.13307	236371
30.13933	228599
30.14558	233195
30.15183	228884
30.15810	232604
30.16435	235866
30.17060	225486
30.17687	237623
30.18312	223963
30.18937	232926
30.19563	224268
30.20188	224646
30.20813	233895
30.21440	232649
30.22065	234724
30.22690	224725
30.23317	225550
30.23942	226591
30.24567	229088
30.25193	221032
30.25818	227984
30.26443	234071
30.27070	226496
30.27695	225269
30.28320	226131
30.28947	226228
30.29572	227958
30.30197	224350
30.30823	231463
30.31448	230664
30.32073	223540
30.32700	231501
30.33325	226907
30.33950	224595
30.34575	225250
30.35202	235844
30.35827	224614
30.36452	226181
30.37078	229754
30.37703	218823
30.38328	226095
30.38955	232417
30.39580	220007
30.40205	226485
30.40832	223609
30.41457	230940
30.42082	222210
30.42708	229084
30.43333	227477
30.43958	225479
30.44585	219857
30.45210	230253
30.45835	224143
30.46462	228704
30.47087	224380
30.47712	222681
30.48338	226886
30.48963	227480
30.49588	228361
30.50215	229569
30.50840	225370
30.51465	232285
30.52092	226715
30.52717	228652
30.53342	219041
30.53968	229697
30.54593	219241
30.55218	227050
30.55845	231656
30.56470	229106
30.57095	223670
30.57720	219376
30.58347	226099
30.58972	220898
30.59597	226945
30.60223	226324
30.60848	230974
30.61473	228195
30.62100	219387
30.62725	230798
30.63350	216842
30.63977	230364
30.64602	216971
30.65227	219362
30.65853	217385
30.66478	223281
30.67103	218264
30.67730	216346
30.68355	231098
30.68980	218936
30.69607	218849
30.70232	225705
30.70857	227332
30.71483	216726
30.72108	226619
30.72733	225935
30.73360	217778
30.73985	215571
30.74610	217727
30.75237	215741
30.75862	218913
30.76487	221677
30.77113	217165
30.77738	224918
30.78363	220844
30.78988	223522
30.79615	222323
30.80240	213640
30.80865	225035
30.81492	221501
30.82117	215194
30.82742	218767
30.83368	217436
30.83993	224589
30.84618	223214
30.85245	216758
30.85870	216871
30.86495	212859
30.87122	218556
30.87747	224373
30.88372	216139
30.88998	219340
30.89623	221862
30.90248	226246
30.90875	215379
30.91500	224444
30.92125	228248
30.92752	224904
30.93377	225455
30.94002	225660
30.94628	217187
30.95253	224384
30.95878	222102
30.96505	223256
30.97130	225222
30.97755	222453
30.98382	229579
30.99007	223594
30.99632	230360
31.00258	231200
31.00883	233106
31.01508	224829
31.02133	218466
31.02760	224040
31.03385	221395
31.04010	216572
31.04637	226254
31.05262	223617
31.05887	224342
31.06513	217215
31.07138	216294
31.07763	215666
31.08390	221268
31.09015	218924
31.09640	220869
31.10267	219996
31.10892	221924
31.11517	215135
31.12143	219277
31.12768	212927
31.13393	219172
31.14020	221385
31.14645	223279
31.15270	209349
31.15897	216367
31.16522	211499
31.17147	210351
31.17773	219856
31.18398	211924
31.19023	212617
31.19650	212697
31.20275	214330
31.20900	221941
31.21527	210954
31.22152	210139
31.22777	214501
31.23402	219334
31.24028	216134
31.24653	212166
31.25278	216548
31.25905	210862
31.26530	213590
31.27155	211603
31.27782	205650
31.28407	212567
31.29032	207568
31.29658	220259
31.30283	216515
31.30908	208421
31.31535	219614
31.32160	212530
31.32785	214481
31.33412	215818
31.34037	215812
31.34662	219423
31.35288	212733
31.35913	212579
31.36538	219030
31.37165	215140
31.37790	221177
31.38415	218322
31.39042	216225
31.39667	222143
31.40292	217082
31.40918	211691
31.41543	213126
31.42168	218876
31.42795	211886
31.43420	207906
31.44045	214728
31.44672	211503
31.45297	211055
31.45922	211700
31.46547	210497
31.47173	217638
31.47798	218569
31.48423	208444
31.49050	210388
31.49675	213635
31.50300	218744
31.50927	216381
31.51552	216073
31.52177	208491
31.52803	207210
31.53428	213342
31.54053	208937
31.54680	209429
31.55305	207656
31.55930	208019
31.56557	216348
31.57182	216864
31.57807	207191
31.58433	212482
31.59058	209166
31.59683	211563
31.60310	202137
31.60935	209616
31.61560	209296
31.62187	203821
31.62812	209412
31.63437	205710
31.64063	216411
31.64688	211789
31.65313	200346
31.65940	206747
31.66565	204349
31.67190	201740
31.67815	208081
31.68442	199951
31.69067	209632
31.69692	210569
31.70318	210732
31.70943	207713
31.71568	214072
31.72195	214141
31.72820	210858
31.73445	203874
31.74072	200354
31.74697	211224
31.75322	203977
31.75948	213178
31.76573	201252
31.77198	203559
31.77825	203493
31.78450	204957
31.79075	199160
31.79702	200753
31.80327	200886
31.80952	209897
31.81578	205154
31.82203	202718
31.82828	204112
31.83455	201138
31.84080	209979
31.84705	211377
31.85332	214165
31.85957	204907
31.86582	207329
31.87208	201345
31.87833	205417
31.88458	209618
31.89085	206018
31.89710	199443
31.90335	201537
31.90960	203944
31.91587	212068
31.92212	205786
31.92837	210496
31.93463	210384
31.94088	211629
31.94713	207184
31.95340	206059
31.95965	199104
31.96590	205898
31.97217	203531
31.97842	199827
31.98467	205109
31.99093	204661
31.99718	204255
32.00343	207517
32.00970	196813
32.01595	203877
32.02220	204446
32.02847	206928
32.03472	202260
32.04097	200451
32.04723	204825
32.05348	200042
32.05973	196883
32.06600	202682
32.07225	205727
32.07850	206849
32.08477	197521
32.09102	198753
32.09727	201481
32.10353	199555
32.10978	198157
32.11603	199376
32.12228	198614
32.12855	198899
32.13480	205214
32.14105	204212
32.14732	201302
32.15357	205007
32.15982	194689
32.16608	198705
32.17233	200175
32.17858	205351
32.18485	200283
32.19110	203761
32.19735	205169
32.20362	207029
32.20987	205427
32.21612	194378
32.22238	197258
32.22863	198137
32.23488	205189
32.24115	196535
32.24740	204013
32.25365	202708
32.25992	197550
32.26617	196006
32.27242	195556
32.27868	195630
32.28493	204665
32.29118	195295
32.29745	203844
32.30370	203181
32.30995	196657
32.31622	202044
32.32247	195455
32.32872	196511
32.33497	195579
32.34123	202195
32.34748	196013
32.35373	202532
32.36000	198527
32.36625	197899
32.37250	196313
32.37877	196894
32.38502	203699
32.39127	202495
32.39753	201975
32.40378	201127
32.41003	196525
32.41630	192911
32.42255	199370
32.42880	198683
32.43507	199246
32.44132	193432
32.44757	199951
32.45383	203371
32.46008	193751
32.46633	195144
32.47260	194638
32.47885	201836
32.48510	198798
32.49137	194125
32.49762	197532
32.50387	200385
32.51013	197581
32.51638	193879
32.52263	195478
32.52890	190607
32.53515	195988
32.54140	197536
32.54767	202303
32.55392	197197
32.56017	192833
32.56642	194022
32.57268	192817
32.57893	191407
32.58518	192493
32.59145	192768
32.59770	195285
32.60395	200718
32.61022	193276
32.61647	195001
32.62272	189155
32.62898	198723
32.63523	193576
32.64148	200818
32.64775	200779
32.65400	195298
32.66025	196254
32.66652	191384
32.67277	194221
32.67902	198245
32.68528	191356
32.69153	189492
32.69778	188974
32.70405	199628
32.71030	190986
32.71655	187356
32.72282	190475
32.72907	193037
32.73532	198169
32.74158	195264
32.74783	194162
32.75408	189706
32.76035	188979
32.76660	195968
32.77285	198897
32.77910	192917
32.78537	190737
32.79162	192642
32.79787	197644
32.80413	188899
32.81038	192346
32.81663	186974
32.82290	193199
32.82915	185334
32.83540	186228
32.84167	190780
32.84792	191249
32.85417	185181
32.86043	193774
32.86668	197416
32.87293	194651
32.87920	189675
32.88545	191262
32.89170	190623
32.89797	194174
32.90422	194608
32.91047	189181
32.91673	195275
32.92298	191132
32.92923	190317
32.93550	186934
32.94175	187325
32.94800	195353
32.95427	186685
32.96052	188852
32.96677	192388
32.97303	187384
32.97928	195395
32.98553	184585
32.99178	192296
32.99805	194923
33.00430	190325
33.01055	192218
33.01682	190302
33.02307	196800
33.02932	185190
33.03558	192546
33.04183	188377
33.04808	186017
33.05435	188626
33.06060	186786
33.06685	193830
33.07312	184500
33.07937	191259
33.08562	185419
33.09188	191988
33.09813	184001
33.10438	186290
33.11065	188155
33.11690	184459
33.12315	190037
33.12942	188086
33.13567	192038
33.14192	189561
33.14818	190789
33.15443	192595
33.16068	196645
33.16695	198936
33.17320	198034
33.17945	192964
33.18572	197661
33.19197	203437
33.19822	198606
33.20448	186075
33.21073	195518
33.21698	186657
33.22323	199745
33.22950	188624
33.23575	185571
33.24200	184697
33.24827	183198
33.25452	183258
33.26077	190503
33.26703	187587
33.27328	188117
33.27953	188452
33.28580	185428
33.29205	189678
33.29830	189693
33.30457	181631
33.31082	190742
33.31707	189473
33.32333	193879
33.32958	186689
33.33583	186977
33.34210	183862
33.34835	194400
33.35460	184518
33.36087	193101
33.36712	192513
33.37337	191119
33.37963	194262
33.38588	193174
33.39213	189888
33.39840	186178
33.40465	184531
33.41090	192023
33.41717	184125
33.42342	184631
33.42967	183122
33.43592	190101
33.44218	184936
33.44843	188594
33.45468	179356
33.46095	181977
33.46720	179452
33.47345	181788
33.47972	183716
33.48597	181553
33.49222	182598
33.49848	183695
33.50473	184531
33.51098	183192
33.51725	186023
33.52350	180331
33.52975	178066
33.53602	179150
33.54227	180957
33.54852	178669
33.55478	179280
33.56103	181982
33.56728	180599
33.57355	188602
33.57980	182304
33.58605	181941
33.59232	187964
33.59857	178746
33.60482	178243
33.61108	187107
33.61733	180312
33.62358	185602
33.62985	183469
33.63610	184451
33.64235	176841
33.64862	185465
33.65487	183062
33.66112	181633
33.66737	179197
33.67363	184741
33.67988	187254
33.68613	177749
33.69240	181500
33.69865	185782
33.70490	175811
33.71117	186329
33.71742	184155
33.72367	186317
33.72993	178296
33.73618	181248
33.74243	181517
33.74870	183766
33.75495	177607
33.76120	187390
33.76747	179376
33.77372	174442
33.77997	176781
33.78623	177094
33.79248	177677
33.79873	179247
33.80500	179571
33.81125	176245
33.81750	179478
33.82377	179842
33.83002	182708
33.83627	181482
33.84253	176339
33.84878	177733
33.85503	182572
33.86130	177699
33.86755	176193
33.87380	179928
33.88005	176166
33.88632	183023
33.89257	177028
33.89882	182253
33.90508	180765
33.91133	172667
33.91758	177263
33.92385	177829
33.93010	178430
33.93635	177822
33.94262	174830
33.94887	177669
33.95512	182000
33.96138	176049
33.96763	173587
33.97388	177058
33.98015	178138
33.98640	173895
33.99265	180968
33.99892	175070
34.00517	184058
34.01142	179737
34.01768	175996
34.02393	182344
34.03018	183044
34.03645	176339
34.04270	183114
34.04895	175956
34.05522	179170
34.06147	179197
34.06772	176075
34.07398	174532
34.08023	178225
34.08648	180889
34.09275	177066
34.09900	175641
34.10525	177229
34.11150	174119
34.11777	173361
34.12402	177220
34.13027	175964
34.13653	181809
34.14278	178391
34.14903	175128
34.15530	180625
34.16155	176991
34.16780	170753
34.17407	180217
34.18032	175916
34.18657	171720
34.19283	179291
34.19908	176461
34.20533	173265
34.21160	177124
34.21785	181022
34.22410	174605
34.23037	171371
34.23662	181622
34.24287	170675
34.24913	174106
34.25538	172710
34.26163	174952
34.26790	177010
34.27415	176006
34.28040	173528
34.28667	178046
34.29292	172546
34.29917	175667
34.30543	173135
34.31168	174393
34.31793	180176
34.32418	178972
34.33045	171237
34.33670	171749
34.34295	181477
34.34922	175548
34.35547	174940
34.36172	171243
34.36798	170942
34.37423	178517
34.38048	178117
34.38675	179214
34.39300	176207
34.39925	175068
34.40552	171626
34.41177	170614
34.41802	170197
34.42428	171857
34.43053	170306
34.43678	176735
34.44305	172511
34.44930	173869
34.45555	174456
34.46182	176633
34.46807	178016
34.47432	169702
34.48058	173870
34.48683	171818
34.49308	173780
34.49935	168560
34.50560	171228
34.51185	173246
34.51812	171331
34.52437	179018
34.53062	171442
34.53688	170847
34.54313	169145
34.54938	173094
34.55563	174376
34.56190	177325
34.56815	174100
34.57440	170733
34.58067	169977
34.58692	171273
34.59317	176397
34.59943	179217
34.60568	171322
34.61193	176306
34.61820	176165
34.62445	173757
34.63070	169425
34.63697	168227
34.64322	168160
34.64947	168045
34.65573	174629
34.66198	171490
34.66823	172788
34.67450	173790
34.68075	175944
34.68700	171633
34.69327	165873
34.69952	167715
34.70577	166954
34.71203	168913
34.71828	167183
34.72453	166225
34.73080	168540
34.73705	169430
34.74330	168843
34.74957	170452
34.75582	170536
34.76207	168620
34.76832	168907
34.77458	173047
34.78083	170534
34.78708	174621
34.79335	174911
34.79960	169201
34.80585	169178
34.81212	168209
34.81837	165920
34.82462	170090
34.83088	170727
34.83713	173863
34.84338	173665
34.84965	174525
34.85590	167342
34.86215	164595
34.86842	166738
34.87467	166860
34.88092	164375
34.88718	164561
34.89343	171201
34.89968	175204
34.90595	166801
34.91220	167373
34.91845	172505
34.92472	165770
34.93097	169588
34.93722	168088
34.94348	167880
34.94973	163166
34.95598	167177
34.96225	167781
34.96850	167544
34.97475	161933
34.98100	165100
34.98727	170056
34.99352	171622
34.99977	167313
35.00603	165363
35.01228	165233
35.01853	166243
35.02480	168899
35.03105	160598
35.03730	164983
35.04357	163145
35.04982	163244
35.05607	167138
35.06233	165258
35.06858	162333
35.07483	170782
35.08110	163350
35.08735	169125
35.09360	168580
35.09987	164358
35.10612	169298
35.11237	168249
35.11863	169400
35.12488	169879
35.13113	162335
35.13740	162864
35.14365	164483
35.14990	168208
35.15617	166889
35.16242	162852
35.16867	164001
35.17493	162930
35.18118	163157
35.18743	168766
35.19370	165597
35.19995	164513
35.20620	161158
35.21245	165679
35.21872	168075
35.22497	160331
35.23122	161931
35.23748	169284
35.24373	161735
35.24998	168020
35.25625	161925
35.26250	164390
35.26875	160944
35.27502	161137
35.28127	166050
35.28752	163039
35.29378	161925
35.30003	162585
35.30628	160224
35.31255	166508
35.31880	169913
35.32505	163983
35.33132	157171
35.33757	166178
35.34382	168434
35.35008	167249
35.35633	164337
35.36258	168507
35.36885	160290
35.37510	162734
35.38135	168716
35.38762	162806
35.39387	166133
35.40012	161887
35.40638	166518
35.41263	166520
35.41888	169630
35.42513	159750
35.43140	167743
35.43765	160996
35.44390	170460
35.45017	160973
35.45642	160723
35.46267	167929
35.46893	169164
35.47518	160562
35.48143	167553
35.48770	162897
35.49395	159287
35.50020	161601
35.50647	165331
35.51272	165994
35.51897	160324
35.52523	160776
35.53148	165192
35.53773	163218
35.54400	163905
35.55025	157973
35.55650	165166
35.56277	168195
35.56902	159807
35.57527	166451
35.58153	168270
35.58778	167172
35.59403	160461
35.60030	168983
35.60655	163716
35.61280	166685
35.61907	166504
35.62532	161502
35.63157	166752
35.63782	162515
35.64408	156561
35.65033	166889
35.65658	161227
35.66285	162012
35.66910	164222
35.67535	160859
35.68162	164717
35.68787	161840
35.69412	165756
35.70038	164517
35.70663	167389
35.71288	160587
35.71915	159317
35.72540	157061
35.73165	159412
35.73792	162811
35.74417	164833
35.75042	162230
35.75668	162287
35.76293	157121
35.76918	157598
35.77545	162243
35.78170	162867
35.78795	161885
35.79422	167002
35.80047	157531
35.80672	163085
35.81298	157028
35.81923	158441
35.82548	163205
35.83175	158748
35.83800	164035
35.84425	157819
35.85052	156496
35.85677	158660
35.86302	153804
35.86927	157977
35.87553	157629
35.88178	156988
35.88803	156197
35.89430	163496
35.90055	163260
35.90680	158534
35.91307	159696
35.91932	162169
35.92557	155605
35.93183	159132
35.93808	155942
35.94433	162777
35.95060	158049
35.95685	159272
35.96310	155879
35.96937	159521
35.97562	161910
35.98187	154533
35.98813	159405
35.99438	159632
36.00063	157759
36.00690	158748
36.01315	154091
36.01940	154110
36.02567	158843
36.03192	156810
36.03817	154173
36.04443	158320
36.05068	154191
36.05693	154769
36.06320	154329
36.06945	157636
36.07570	157456
36.08195	155705
36.08822	158918
36.09447	152771
36.10072	157285
36.10698	152902
36.11323	156989
36.11948	162027
36.12575	157919
36.13200	154530
36.13825	159844
36.14452	156732
36.15077	152141
36.15702	162357
36.16328	155600
36.16953	154381
36.17578	152375
36.18205	157075
36.18830	153895
36.19455	158829
36.20082	156584
36.20707	159717
36.21332	154577
36.21958	160470
36.22583	160925
36.23208	160286
36.23835	164229
36.24460	169826
36.25085	173780
36.25712	175266
36.26337	181343
36.26962	194350
36.27588	195627
36.28213	203753
36.28838	215368
36.29465	225900
36.30090	227771
36.30715	234499
36.31340	237308
36.31967	235035
36.32592	233105
36.33217	232026
36.33843	233747
36.34468	222790
36.35093	216022
36.35720	213381
36.36345	205245
36.36970	197372
36.37597	185373
36.38222	186071
36.38847	178742
36.39473	181251
36.40098	171712
36.40723	173348
36.41350	166240
36.41975	164055
36.42600	166978
36.43227	162127
36.43852	161645
36.44477	163597
36.45103	156147
36.45728	164455
36.46353	161839
36.46980	162149
36.47605	161416
36.48230	161153
36.48857	159908
36.49482	158426
36.50107	161564
36.50733	158596
36.51358	155170
36.51983	159163
36.52608	159968
36.53235	159671
36.53860	157543
36.54485	157055
36.55112	160273
36.55737	156615
36.56362	157580
36.56988	158033
36.57613	158673
36.58238	154620
36.58865	157703
36.59490	156684
36.60115	157134
36.60742	151552
36.61367	157408
36.61992	153486
36.62618	157533
36.63243	153535
36.63868	154111
36.64495	154481
36.65120	155578
36.65745	158490
36.66372	152003
36.66997	157782
36.67622	154113
36.68248	152029
36.68873	153514
36.69498	151461
36.70125	156604
36.70750	153319
36.71375	149934
36.72002	156214
36.72627	152961
36.73252	155104
36.73878	156105
36.74503	155015
36.75128	156214
36.75753	152820
36.76380	150076
36.77005	154810
36.77630	156323
36.78257	152718
36.78882	153762
36.79507	155659
36.80133	151681
36.80758	151005
36.81383	151766
36.82010	149321
36.82635	153904
36.83260	145910
36.83887	152499
36.84512	151966
36.85137	151191
36.85763	153804
36.86388	157658
36.87013	151802
36.87640	153573
36.88265	152204
36.88890	154173
36.89517	153192
36.90142	149303
36.90767	155963
36.91393	150668
36.92018	152259
36.92643	155519
36.93270	149494
36.93895	152655
36.94520	148270
36.95147	149740
36.95772	150370
36.96397	153481
36.97022	150083
36.97648	149245
36.98273	151481
36.98898	153496
36.99525	148076
37.00150	148495
37.00775	149529
37.01402	150181
37.02027	149511
37.02652	149672
37.03278	146819
37.03903	155665
37.04528	152045
37.05155	151526
37.05780	151196
37.06405	156019
37.07032	152251
37.07657	153054
37.08282	147633
37.08908	148591
37.09533	151440
37.10158	148151
37.10785	151192
37.11410	144975
37.12035	148807
37.12662	147591
37.13287	147149
37.13912	154915
37.14538	146965
37.15163	148726
37.15788	149032
37.16415	146437
37.17040	151135
37.17665	153744
37.18292	149426
37.18917	147707
37.19542	146097
37.20167	148833
37.20793	152962
37.21418	152460
37.22043	145738
37.22670	145063
37.23295	148923
37.23920	148588
37.24547	156211
37.25172	154217
37.25797	147201
37.26423	142578
37.27048	146795
37.27673	144664
37.28300	145785
37.28925	149097
37.29550	149536
37.30177	152563
37.30802	148602
37.31427	149399
37.32053	147214
37.32678	146457
37.33303	154251
37.33930	146583
37.34555	143549
37.35180	148109
37.35807	147986
37.36432	147531
37.37057	145384
37.37683	145444
37.38308	152512
37.38933	145264
37.39560	148070
37.40185	152170
37.40810	145910
37.41435	151697
37.42062	147855
37.42687	145404
37.43312	147876
37.43938	146281
37.44563	146536
37.45188	145468
37.45815	142391
37.46440	147435
37.47065	145512
37.47692	149187
37.48317	143980
37.48942	146663
