D:\MassHunter\GCMS\1\data\metastasis_lineages_3replicates_3runs_10302020\B_plate1_run2_10302020.D Sat Oct 31 00:56:26 2020
Start of data points
5.99348,168130
5.99973,174727
6.00600,187397
6.01225,185361
6.01850,185952
6.02477,179063
6.03102,178681
6.03727,191251
6.04353,196729
6.04978,199284
6.05603,184921
6.06230,189770
6.06855,202011
6.07480,202090
6.08107,183616
6.08732,168045
6.09357,201378
6.09982,363011
6.10608,750770
6.11233,1047300
6.11858,917366
6.12485,550401
6.13110,311438
6.13735,216637
6.14362,197569
6.14987,241139
6.15612,368707
6.16238,630503
6.16863,901317
6.17488,953581
6.18115,700934
6.18740,426190
6.19365,273305
6.19992,207494
6.20617,187353
6.21242,174475
6.21868,170112
6.22493,164493
6.23118,155005
6.23745,151453
6.24370,156087
6.24995,149066
6.25622,154670
6.26247,147845
6.26872,153344
6.27498,170927
6.28123,178976
6.28748,175692
6.29375,179143
6.30000,203398
6.30625,313340
6.31252,537156
6.31877,1033320
6.32502,2299587
6.33127,5550950
6.33753,1.069362E+07
6.34378,1.388261E+07
6.35003,1.129189E+07
6.35630,4752599
6.36255,1093354
6.36880,318821
6.37507,225827
6.38132,215389
6.38757,213511
6.39383,212672
6.40008,249173
6.40633,397796
6.41260,588580
6.41885,704184
6.42510,693712
6.43137,800287
6.43762,914354
6.44387,795288
6.45013,699675
6.45638,1293692
6.46263,3588760
6.46890,8531958
6.47515,1.519203E+07
6.48140,2.2807E+07
6.48767,3.014218E+07
6.49392,3.68306E+07
6.50017,4.233512E+07
6.50643,4.543622E+07
6.51268,4.589587E+07
6.51893,4.560834E+07
6.52520,4.449759E+07
6.53145,2.172067E+07
6.53770,1758591
6.54395,711846
6.55022,730152
6.55647,799957
6.56272,988891
6.56898,1478039
6.57523,2222851
6.58148,2431874
6.58775,1617422
6.59400,747397
6.60025,393988
6.60652,309274
6.61277,281157
6.61902,266535
6.62528,265471
6.63153,270278
6.63778,276558
6.64405,288160
6.65030,276622
6.65655,268006
6.66282,292435
6.66907,368842
6.67532,447999
6.68158,406477
6.68783,334965
6.69408,283712
6.70035,269233
6.70660,269575
6.71285,290483
6.71912,307076
6.72537,313633
6.73162,324762
6.73788,327504
6.74413,341732
6.75038,345181
6.75663,348788
6.76290,345307
6.76915,346528
6.77540,359641
6.78167,360237
6.78792,360831
6.79417,384342
6.80043,425500
6.80668,492117
6.81293,522265
6.81920,514960
6.82545,472689
6.83170,455707
6.83797,471016
6.84422,499005
6.85047,532422
6.85673,527497
6.86298,498444
6.86923,498963
6.87550,623673
6.88175,896724
6.88800,1175516
6.89427,1119711
6.90052,830336
6.90677,601976
6.91303,509380
6.91928,466292
6.92553,450925
6.93180,438025
6.93805,433637
6.94430,430478
6.95057,422781
6.95682,401769
6.96307,388150
6.96933,380368
6.97558,372016
6.98183,371919
6.98808,360607
6.99435,346019
7.00060,317516
7.00685,316334
7.01312,330153
7.01937,373868
7.02562,562801
7.03188,1170187
7.03813,2741856
7.04438,5471793
7.05065,7685928
7.05690,7350094
7.06315,4224751
7.06942,1529677
7.07567,509340
7.08192,262746
7.08818,215638
7.09443,194944
7.10068,182840
7.10695,172029
7.11320,163379
7.11945,156975
7.12572,155636
7.13197,165293
7.13822,205206
7.14448,280065
7.15073,370588
7.15698,377998
7.16325,286252
7.16950,199336
7.17575,157837
7.18202,140131
7.18827,130894
7.19452,137957
7.20077,148659
7.20703,160653
7.21328,162380
7.21953,152974
7.22580,146107
7.23205,146351
7.23830,156819
7.24457,194215
7.25082,275662
7.25707,479529
7.26333,750537
7.26958,859239
7.27583,694931
7.28210,434683
7.28835,255913
7.29460,190193
7.30087,170494
7.30712,163779
7.31337,147621
7.31963,144149
7.32588,131180
7.33213,130044
7.33840,121962
7.34465,123908
7.35090,125371
7.35717,122113
7.36342,121223
7.36967,121444
7.37593,118473
7.38218,128970
7.38843,146728
7.39470,167829
7.40095,157381
7.40720,151892
7.41345,169241
7.41972,231326
7.42597,298837
7.43222,337763
7.43848,322654
7.44473,259087
7.45098,205224
7.45725,176863
7.46350,189093
7.46975,205809
7.47602,202588
7.48227,200549
7.48852,200125
7.49478,208950
7.50103,233630
7.50728,275816
7.51355,247602
7.51980,196154
7.52605,153903
7.53232,128001
7.53857,126614
7.54482,155944
7.55108,375208
7.55733,1483786
7.56358,5001216
7.56985,1.154556E+07
7.57610,1.983116E+07
7.58235,2.526494E+07
7.58862,2.380876E+07
7.59487,1.392265E+07
7.60112,5045501
7.60738,2396626
7.61363,1801137
7.61988,1271519
7.62615,887954
7.63240,648172
7.63865,432728
7.64490,299482
7.65117,236440
7.65742,207758
7.66367,204947
7.66993,228191
7.67618,301513
7.68243,383122
7.68870,372795
7.69495,303154
7.70120,222127
7.70747,198296
7.71372,257648
7.71997,346585
7.72623,400877
7.73248,363067
7.73873,301414
7.74500,238678
7.75125,196637
7.75750,170627
7.76377,153416
7.77002,151891
7.77627,147692
7.78253,158995
7.78878,163670
7.79503,153654
7.80130,151789
7.80755,144924
7.81380,149462
7.82007,181347
7.82632,245546
7.83257,333112
7.83883,334013
7.84508,276485
7.85133,242316
7.85758,297067
7.86385,382622
7.87010,420634
7.87635,369273
7.88262,272937
7.88887,190982
7.89512,167980
7.90138,164308
7.90763,178123
7.91388,203204
7.92015,219566
7.92640,210784
7.93265,191558
7.93892,186826
7.94517,216547
7.95142,282877
7.95768,333478
7.96393,349413
7.97018,334924
7.97645,314900
7.98270,310684
7.98895,399353
7.99522,634826
8.00147,938328
8.00772,1196095
8.01398,1750412
8.02023,2456575
8.02648,2558112
8.03275,1864430
8.03900,1087499
8.04525,810353
8.05152,904698
8.05777,932015
8.06402,823036
8.07028,555614
8.07653,350991
8.08278,309662
8.08903,394875
8.09530,500176
8.10155,541686
8.10780,584074
8.11407,765841
8.12032,915212
8.12657,846592
8.13283,577507
8.13908,335054
8.14533,223649
8.15160,180787
8.15785,160487
8.16410,146922
8.17037,147731
8.17662,144883
8.18287,132978
8.18913,119689
8.19538,114886
8.20163,112855
8.20790,115201
8.21415,115152
8.22040,124266
8.22667,161625
8.23292,226451
8.23917,288975
8.24543,280214
8.25168,218809
8.25793,168891
8.26420,150610
8.27045,141774
8.27670,150447
8.28297,170291
8.28922,192921
8.29547,202084
8.30172,166842
8.30798,126895
8.31423,103052
8.32048,92936
8.32675,88116
8.33300,88735
8.33925,92670
8.34552,92515
8.35177,96550
8.35802,100913
8.36428,102420
8.37053,98711
8.37678,98535
8.38305,94855
8.38930,95300
8.39555,115237
8.40182,181245
8.40807,292579
8.41432,372218
8.42058,332028
8.42683,215511
8.43308,140023
8.43935,122260
8.44560,128232
8.45185,140893
8.45812,144005
8.46437,133023
8.47062,121256
8.47688,110765
8.48313,110127
8.48938,111966
8.49565,114299
8.50190,126746
8.50815,132412
8.51442,133786
8.52067,119446
8.52692,101911
8.53317,92809
8.53943,90410
8.54568,91779
8.55193,99876
8.55820,135014
8.56445,217998
8.57070,384806
8.57697,561060
8.58322,829450
8.58947,1188132
8.59573,1403177
8.60198,1331684
8.60823,1530989
8.61450,3392192
8.62075,7502842
8.62700,1.287393E+07
8.63327,1.561255E+07
8.63952,1.249923E+07
8.64577,5905220
8.65203,1600706
8.65828,386715
8.66453,199301
8.67080,178223
8.67705,174829
8.68330,170192
8.68957,176200
8.69582,184783
8.70207,187829
8.70833,190750
8.71458,194374
8.72083,194302
8.72710,182261
8.73335,161575
8.73960,155660
8.74585,162944
8.75212,168269
8.75837,150832
8.76462,120447
8.77088,103279
8.77713,100984
8.78338,100089
8.78965,97397
8.79590,89980
8.80215,83542
8.80842,83921
8.81467,79284
8.82092,87441
8.82718,122095
8.83343,292467
8.83968,851002
8.84595,2265403
8.85220,4724504
8.85845,7193036
8.86472,8210678
8.87097,7143226
8.87722,5418976
8.88348,4830361
8.88973,5012967
8.89598,4629488
8.90225,2342174
8.90850,754091
8.91475,306302
8.92102,179888
8.92727,140470
8.93352,124327
8.93978,119134
8.94603,120926
8.95228,136603
8.95855,172914
8.96480,212846
8.97105,243896
8.97730,258029
8.98357,272701
8.98982,299938
8.99607,408055
9.00233,548702
9.00858,713978
9.01483,744744
9.02110,605172
9.02735,431268
9.03360,465066
9.03987,786336
9.04612,1199534
9.05237,1293388
9.05863,892800
9.06488,458647
9.07113,240242
9.07740,172355
9.08365,152148
9.08990,152487
9.09617,158769
9.10242,165886
9.10867,154383
9.11493,136776
9.12118,120510
9.12743,121152
9.13370,147811
9.13995,183988
9.14620,195885
9.15247,234184
9.15872,267280
9.16497,311154
9.17123,357751
9.17748,343960
9.18373,369893
9.18998,443522
9.19625,482548
9.20250,433094
9.20875,308134
9.21502,202916
9.22127,163279
9.22752,147098
9.23378,158442
9.24003,207851
9.24628,253232
9.25255,273162
9.25880,241917
9.26505,188392
9.27132,139386
9.27757,120606
9.28382,127655
9.29008,153188
9.29633,217317
9.30258,319208
9.30885,403727
9.31510,476554
9.32135,534868
9.32762,543730
9.33387,552425
9.34012,678522
9.34638,998748
9.35263,1271293
9.35888,1182088
9.36515,801174
9.37140,500968
9.37765,875438
9.38392,2974133
9.39017,8125836
9.39642,1.432383E+07
9.40267,1.754291E+07
9.40893,1.56492E+07
9.41518,8740361
9.42143,2962978
9.42770,1032606
9.43395,1674961
9.44020,5315013
9.44647,1.3464E+07
9.45272,2.356028E+07
9.45897,2.971594E+07
9.46523,2.790088E+07
9.47148,1.727417E+07
9.47773,6416392
9.48400,1673779
9.49025,556980
9.49650,310339
9.50277,230981
9.50902,202351
9.51527,206987
9.52153,200677
9.52778,197817
9.53403,194103
9.54030,198137
9.54655,197606
9.55280,183709
9.55907,187022
9.56532,193682
9.57157,204546
9.57783,232992
9.58408,227962
9.59033,213347
9.59660,198725
9.60285,206607
9.60910,239512
9.61537,267016
9.62162,264950
9.62787,224429
9.63412,185684
9.64038,155030
9.64663,148395
9.65288,151663
9.65915,151974
9.66540,148491
9.67165,171358
9.67792,475621
9.68417,1812515
9.69042,5208412
9.69668,1.083437E+07
9.70293,1.543196E+07
9.70918,1.620364E+07
9.71545,1.022027E+07
9.72170,3953863
9.72795,2142154
9.73422,2896111
9.74047,3608209
9.74672,3599334
9.75298,2090267
9.75923,907287
9.76548,371897
9.77175,215715
9.77800,180297
9.78425,166008
9.79052,145950
9.79677,131601
9.80302,134029
9.80928,132983
9.81553,133161
9.82178,138460
9.82805,144205
9.83430,156691
9.84055,190649
9.84680,257076
9.85307,516613
9.85932,1608315
9.86557,4598109
9.87183,1.015556E+07
9.87808,1.524064E+07
9.88433,1.553831E+07
9.89060,1.018762E+07
9.89685,4302359
9.90310,1816881
9.90937,1713073
9.91562,1770838
9.92187,1403747
9.92813,778256
9.93438,375555
9.94063,229306
9.94690,198097
9.95315,228508
9.95940,342251
9.96567,564207
9.97192,913237
9.97817,1235514
9.98443,1405538
9.99068,1478446
9.99693,1443787
10.00320,1177870
10.00945,756680
10.01570,455573
10.02197,300869
10.02822,244191
10.03447,203949
10.04073,191394
10.04698,191828
10.05323,189651
10.05948,175762
10.06575,160822
10.07200,138232
10.07825,141244
10.08452,151048
10.09077,167924
10.09702,201294
10.10328,218491
10.10953,211769
10.11578,197257
10.12205,184003
10.12830,161431
10.13455,147646
10.14082,139073
10.14707,134109
10.15332,131020
10.15958,121994
10.16583,126275
10.17208,142370
10.17835,165930
10.18460,185505
10.19085,189720
10.19712,176187
10.20337,148975
10.20962,147457
10.21588,187138
10.22213,276816
10.22838,445587
10.23465,651004
10.24090,742119
10.24715,630429
10.25342,474539
10.25967,363702
10.26592,261039
10.27218,248828
10.27843,221562
10.28468,217453
10.29093,262354
10.29720,310295
10.30345,307651
10.30970,255275
10.31597,177333
10.32222,158234
10.32847,205607
10.33473,255273
10.34098,296239
10.34723,279193
10.35350,209644
10.35975,161633
10.36600,147932
10.37227,142610
10.37852,128110
10.38477,114254
10.39103,106757
10.39728,106572
10.40353,101977
10.40980,94549
10.41605,95401
10.42230,105057
10.42857,112769
10.43482,119910
10.44107,122057
10.44733,121156
10.45358,126004
10.45983,129064
10.46610,129855
10.47235,140317
10.47860,178972
10.48487,258197
10.49112,313298
10.49737,300354
10.50362,231591
10.50988,158604
10.51613,119590
10.52238,111384
10.52865,129149
10.53490,167920
10.54115,212128
10.54742,224678
10.55367,195704
10.55992,164668
10.56618,157619
10.57243,182131
10.57868,208642
10.58495,221604
10.59120,219396
10.59745,234492
10.60372,459521
10.60997,1541287
10.61622,4178920
10.62248,8286087
10.62873,1.213907E+07
10.63498,1.243607E+07
10.64125,8056333
10.64750,3199152
10.65375,911864
10.66002,289650
10.66627,174386
10.67252,167788
10.67878,181626
10.68503,184303
10.69128,167565
10.69755,139448
10.70380,119981
10.71005,110756
10.71630,114910
10.72257,121943
10.72882,133416
10.73507,143586
10.74133,151811
10.74758,147632
10.75383,141898
10.76010,138465
10.76635,136573
10.77260,147056
10.77887,150834
10.78512,148597
10.79137,144834
10.79763,139574
10.80388,150297
10.81013,204632
10.81640,312171
10.82265,401797
10.82890,396126
10.83517,286766
10.84142,189789
10.84767,146198
10.85393,140254
10.86018,151829
10.86643,163075
10.87270,162248
10.87895,158096
10.88520,152376
10.89147,154796
10.89772,163069
10.90397,182366
10.91023,196716
10.91648,191933
10.92273,171322
10.92900,165231
10.93525,161355
10.94150,144255
10.94775,126481
10.95402,125306
10.96027,181438
10.96652,475040
10.97278,1578501
10.97903,4535789
10.98528,9554376
10.99155,1.59389E+07
10.99780,2.047686E+07
11.00405,1.903957E+07
11.01032,1.114578E+07
11.01657,3745797
11.02282,832814
11.02908,261191
11.03533,205305
11.04158,225262
11.04785,241354
11.05410,263239
11.06035,299046
11.06662,307247
11.07287,257411
11.07912,195270
11.08538,147208
11.09163,131039
11.09788,136189
11.10415,154938
11.11040,158480
11.11665,167589
11.12292,170955
11.12917,183259
11.13542,192211
11.14168,189912
11.14793,198573
11.15418,239844
11.16045,337225
11.16670,488443
11.17295,579114
11.17920,522895
11.18547,360958
11.19172,226019
11.19797,159048
11.20423,149781
11.21048,165898
11.21673,194852
11.22300,207566
11.22925,200235
11.23550,183218
11.24177,170175
11.24802,191476
11.25427,210827
11.26053,221231
11.26678,211062
11.27303,213483
11.27930,233253
11.28555,255773
11.29180,249285
11.29807,204594
11.30432,167787
11.31057,162799
11.31683,194579
11.32308,299902
11.32933,467477
11.33560,584844
11.34185,506719
11.34810,336941
11.35437,188411
11.36062,135155
11.36687,120114
11.37313,127681
11.37938,125341
11.38563,116029
11.39188,116447
11.39815,118894
11.40440,126521
11.41065,137124
11.41692,138698
11.42317,142250
11.42942,142828
11.43568,179960
11.44193,283482
11.44818,480664
11.45445,644900
11.46070,650513
11.46695,489177
11.47322,292853
11.47947,196132
11.48572,166663
11.49198,154602
11.49823,146502
11.50448,136106
11.51075,134543
11.51700,125146
11.52325,123698
11.52952,117651
11.53577,117640
11.54202,122332
11.54828,128385
11.55453,127549
11.56078,119964
11.56705,112893
11.57330,106603
11.57955,113220
11.58582,113660
11.59207,120138
11.59832,121803
11.60458,120538
11.61083,119693
11.61708,124464
11.62333,127692
11.62960,125613
11.63585,125266
11.64210,125297
11.64837,143513
11.65462,151774
11.66087,167739
11.66713,167211
11.67338,158420
11.67963,146173
11.68590,137723
11.69215,139375
11.69840,144812
11.70467,173627
11.71092,213450
11.71717,259974
11.72343,301834
11.72968,273350
11.73593,227860
11.74220,186487
11.74845,159961
11.75470,137803
11.76097,133067
11.76722,145213
11.77347,168369
11.77973,181333
11.78598,185967
11.79223,190832
11.79850,196591
11.80475,195668
11.81100,186549
11.81727,173417
11.82352,184184
11.82977,253398
11.83602,410096
11.84228,593752
11.84853,674423
11.85478,544486
11.86105,365399
11.86730,240180
11.87355,184639
11.87982,180652
11.88607,221583
11.89232,304674
11.89858,372590
11.90483,375304
11.91108,325310
11.91735,262614
11.92360,209084
11.92985,185147
11.93612,212237
11.94237,357453
11.94862,766034
11.95488,1753280
11.96113,3417275
11.96738,5085217
11.97365,5468149
11.97990,4086470
11.98615,2045888
11.99242,749230
11.99867,362856
12.00492,319922
12.01118,327021
12.01743,319218
12.02368,303839
12.02995,304521
12.03620,347839
12.04245,499892
12.04870,683874
12.05497,938639
12.06122,1082252
12.06747,941126
12.07373,702006
12.07998,478153
12.08623,374139
12.09250,353398
12.09875,359660
12.10500,346692
12.11127,302775
12.11752,250796
12.12377,209449
12.13003,186686
12.13628,174621
12.14253,174587
12.14880,170720
12.15505,162780
12.16130,163341
12.16757,164257
12.17382,170033
12.18007,178100
12.18633,193934
12.19258,245467
12.19883,312066
12.20510,382828
12.21135,510813
12.21760,648888
12.22387,735684
12.23012,702198
12.23637,594473
12.24263,492904
12.24888,499362
12.25513,693136
12.26140,1050260
12.26765,1536076
12.27390,1825877
12.28015,1865864
12.28642,1416670
12.29267,880698
12.29892,476625
12.30518,267271
12.31143,180375
12.31768,151153
12.32395,134584
12.33020,142056
12.33645,157691
12.34272,190339
12.34897,239278
12.35522,273046
12.36148,278518
12.36773,263182
12.37398,281488
12.38025,245695
12.38650,290684
12.39275,332593
12.39902,357583
12.40527,299516
12.41152,234530
12.41778,202472
12.42403,195132
12.43028,216694
12.43655,253626
12.44280,279941
12.44905,267733
12.45532,238305
12.46157,227298
12.46782,233939
12.47408,311789
12.48033,503660
12.48658,921349
12.49283,1492180
12.49910,1961144
12.50535,1898922
12.51160,1291502
12.51787,663626
12.52412,322386
12.53037,210811
12.53663,208720
12.54288,255732
12.54913,302832
12.55540,308655
12.56165,267712
12.56790,263358
12.57417,364853
12.58042,694286
12.58667,1245039
12.59293,1871105
12.59918,2110611
12.60543,1924129
12.61170,1709250
12.61795,2046578
12.62420,2956179
12.63047,4109918
12.63672,5549706
12.64297,7251575
12.64923,1.009812E+07
12.65548,1.383558E+07
12.66173,1.861172E+07
12.66800,2.356182E+07
12.67425,2.696514E+07
12.68050,2.794925E+07
12.68677,2.420649E+07
12.69302,1.345168E+07
12.69927,4333192
12.70552,1018785
12.71178,602300
12.71803,721281
12.72428,918464
12.73055,934167
12.73680,981223
12.74305,1057694
12.74932,1008395
12.75557,918614
12.76182,704914
12.76808,543494
12.77433,450529
12.78058,395977
12.78685,388441
12.79310,402138
12.79935,388692
12.80562,356701
12.81187,324220
12.81812,307123
12.82438,312504
12.83063,323804
12.83688,336321
12.84315,321594
12.84940,317410
12.85565,323619
12.86192,325601
12.86817,320183
12.87442,322129
12.88068,341023
12.88693,448263
12.89318,646860
12.89945,902061
12.90570,1027275
12.91195,957310
12.91822,781338
12.92447,611499
12.93072,465906
12.93697,347823
12.94323,280418
12.94948,244879
12.95573,236130
12.96200,233817
12.96825,222190
12.97450,218850
12.98077,221023
12.98702,229855
12.99327,248317
12.99953,269675
13.00578,287110
13.01203,317795
13.01830,358628
13.02455,435004
13.03080,600245
13.03707,801667
13.04332,879162
13.04957,741703
13.05583,531649
13.06208,430827
13.06833,580173
13.07460,1159137
13.08085,2345094
13.08710,3748353
13.09337,4397056
13.09962,3748916
13.10587,2212229
13.11213,1092388
13.11838,615917
13.12463,452200
13.13090,376701
13.13715,353967
13.14340,350474
13.14965,338718
13.15592,326217
13.16217,315912
13.16842,284137
13.17468,268461
13.18093,245638
13.18718,233634
13.19345,218966
13.19970,209573
13.20595,215761
13.21222,214027
13.21847,223049
13.22472,237537
13.23098,264311
13.23723,298927
13.24348,325758
13.24975,329172
13.25600,326351
13.26225,348977
13.26852,381627
13.27477,370946
13.28102,340472
13.28728,326401
13.29353,361609
13.29978,466576
13.30605,641005
13.31230,832887
13.31855,899694
13.32482,731647
13.33107,484705
13.33732,339483
13.34358,295998
13.34983,319263
13.35608,322070
13.36233,323592
13.36860,289654
13.37485,265155
13.38110,237377
13.38737,227099
13.39362,216213
13.39987,216367
13.40613,219332
13.41238,228657
13.41863,236206
13.42490,266846
13.43115,310465
13.43740,352015
13.44367,395053
13.44992,392934
13.45617,345934
13.46243,304233
13.46868,264171
13.47493,251026
13.48120,252195
13.48745,254216
13.49370,260869
13.49997,263008
13.50622,257110
13.51247,264106
13.51873,272430
13.52498,288790
13.53123,305631
13.53750,340592
13.54375,435132
13.55000,633821
13.55627,918045
13.56252,1138470
13.56877,1084357
13.57503,841448
13.58128,618051
13.58753,611509
13.59378,781144
13.60005,1132915
13.60630,1475602
13.61255,1577468
13.61882,1423407
13.62507,1081477
13.63132,784643
13.63758,584475
13.64383,449549
13.65008,382395
13.65635,362824
13.66260,353874
13.66885,342600
13.67512,333603
13.68137,341629
13.68762,364862
13.69388,399353
13.70013,412068
13.70638,391443
13.71265,349048
13.71890,317457
13.72515,303967
13.73142,306394
13.73767,313902
13.74392,332111
13.75018,391041
13.75643,579736
13.76268,974103
13.76895,1453463
13.77520,1656337
13.78145,1311565
13.78772,850551
13.79397,569022
13.80022,662708
13.80647,1236490
13.81273,2510943
13.81898,4825289
13.82523,8435475
13.83150,1.384702E+07
13.83775,2.047051E+07
13.84400,2.407231E+07
13.85027,2.08302E+07
13.85652,9667417
13.86277,2670136
13.86903,677737
13.87528,352866
13.88153,375056
13.88780,605627
13.89405,1188057
13.90030,2353324
13.90657,4557801
13.91282,7688018
13.91907,1.117988E+07
13.92533,1.132862E+07
13.93158,7574749
13.93783,3191596
13.94410,974559
13.95035,340295
13.95660,228221
13.96287,211294
13.96912,210445
13.97537,213879
13.98163,225235
13.98788,219697
13.99413,220850
14.00040,230842
14.00665,253574
14.01290,295132
14.01917,315820
14.02542,293499
14.03167,249484
14.03792,211652
14.04418,178562
14.05043,173668
14.05668,180392
14.06295,201391
14.06920,231439
14.07545,239924
14.08172,264257
14.08797,242904
14.09422,194000
14.10048,193995
14.10673,168745
14.11298,150220
14.11925,141711
14.12550,144441
14.13175,151956
14.13802,149130
14.14427,141873
14.15052,130832
14.15678,131594
14.16303,130751
14.16928,131973
14.17555,125195
14.18180,118054
14.18805,118654
14.19432,115442
14.20057,120686
14.20682,139509
14.21308,172027
14.21933,217148
14.22558,298782
14.23185,388381
14.23810,416327
14.24435,355218
14.25060,250472
14.25687,190231
14.26312,197008
14.26937,287513
14.27563,452005
14.28188,586570
14.28813,572945
14.29440,433444
14.30065,292394
14.30690,223782
14.31317,195779
14.31942,207775
14.32567,252861
14.33193,295950
14.33818,309506
14.34443,267976
14.35070,221647
14.35695,185986
14.36320,163654
14.36947,158333
14.37572,163724
14.38197,176543
14.38823,198413
14.39448,242500
14.40073,349948
14.40700,650183
14.41325,1392722
14.41950,2793697
14.42577,4365722
14.43202,4700749
14.43827,3685976
14.44453,2194010
14.45078,1321640
14.45703,979100
14.46330,867478
14.46955,869460
14.47580,917012
14.48205,986405
14.48832,940382
14.49457,762826
14.50082,542580
14.50708,337480
14.51333,246713
14.51958,216110
14.52585,222476
14.53210,242170
14.53835,238257
14.54462,220960
14.55087,210877
14.55712,206702
14.56338,206207
14.56963,203017
14.57588,209246
14.58215,209730
14.58840,195761
14.59465,176063
14.60092,172925
14.60717,178043
14.61342,183835
14.61968,184057
14.62593,192808
14.63218,194140
14.63845,232893
14.64470,323879
14.65095,432919
14.65722,476406
14.66347,417542
14.66972,330628
14.67598,276123
14.68223,267683
14.68848,285913
14.69473,344112
14.70100,432261
14.70725,502963
14.71350,532413
14.71977,520259
14.72602,622441
14.73227,959764
14.73853,1487296
14.74478,2039662
14.75103,2118559
14.75730,2209203
14.76355,2230601
14.76980,2098145
14.77607,1548384
14.78232,821940
14.78857,428421
14.79483,348548
14.80108,524813
14.80733,893371
14.81360,1375430
14.81985,1535883
14.82610,1173354
14.83237,629015
14.83862,315506
14.84487,193350
14.85113,168864
14.85738,189840
14.86363,231472
14.86990,270039
14.87615,296860
14.88240,275935
14.88867,235386
14.89492,201889
14.90117,192497
14.90743,214307
14.91368,300306
14.91993,425673
14.92618,561097
14.93245,612153
14.93870,544520
14.94495,453204
14.95122,358905
14.95747,347167
14.96372,445992
14.96998,742273
14.97623,1302050
14.98248,1987081
14.98875,2180810
14.99500,1635997
15.00125,903110
15.00752,468783
15.01377,300204
15.02002,242364
15.02628,222359
15.03253,209301
15.03878,219496
15.04505,238360
15.05130,264361
15.05755,278807
15.06382,283671
15.07007,277469
15.07632,273538
15.08258,265883
15.08883,269263
15.09508,301808
15.10135,341742
15.10760,379690
15.11385,420361
15.12012,472643
15.12637,577136
15.13262,697915
15.13887,812337
15.14513,975660
15.15138,1071732
15.15763,1279300
15.16390,1901268
15.17015,3360615
15.17640,5090625
15.18267,5896657
15.18892,4910904
15.19517,2803281
15.20143,1121240
15.20768,487615
15.21393,301937
15.22020,227337
15.22645,181227
15.23270,160797
15.23897,162026
15.24522,169824
15.25147,184418
15.25773,194609
15.26398,199862
15.27023,194886
15.27650,179049
15.28275,170951
15.28900,166291
15.29527,162447
15.30152,173167
15.30777,174591
15.31403,193916
15.32028,235102
15.32653,276009
15.33280,304552
15.33905,286071
15.34530,236065
15.35155,210573
15.35782,225223
15.36407,274027
15.37032,319197
15.37658,302665
15.38283,245658
15.38908,194402
15.39535,161679
15.40160,146028
15.40785,144634
15.41412,145593
15.42037,161057
15.42662,201343
15.43288,277244
15.43913,355549
15.44538,436226
15.45165,516948
15.45790,602393
15.46415,634082
15.47042,568628
15.47667,454473
15.48292,327240
15.48918,232209
15.49543,191502
15.50168,193702
15.50795,247488
15.51420,374243
15.52045,766050
15.52672,1818799
15.53297,3741930
15.53922,5739847
15.54548,7559889
15.55173,9663085
15.55798,1.342056E+07
15.56425,1.723062E+07
15.57050,1.764306E+07
15.57675,1.069101E+07
15.58300,3679511
15.58927,934441
15.59552,420829
15.60177,342466
15.60803,328586
15.61428,337111
15.62053,333876
15.62680,325167
15.63305,310013
15.63930,302644
15.64557,280864
15.65182,251193
15.65807,220279
15.66433,214124
15.67058,206980
15.67683,219481
15.68310,233000
15.68935,242678
15.69560,241821
15.70187,241562
15.70812,236738
15.71437,220523
15.72063,201431
15.72688,189850
15.73313,187349
15.73940,194774
15.74565,204202
15.75190,218170
15.75817,212416
15.76442,192590
15.77067,166932
15.77693,142643
15.78318,131394
15.78943,127873
15.79568,137840
15.80195,146955
15.80820,151102
15.81445,155367
15.82072,162069
15.82697,174890
15.83322,210956
15.83948,271774
15.84573,379928
15.85198,464305
15.85825,480808
15.86450,373667
15.87075,260126
15.87702,210057
15.88327,192710
15.88952,189464
15.89578,189433
15.90203,184335
15.90828,167084
15.91455,155262
15.92080,146844
15.92705,148564
15.93332,151846
15.93957,152351
15.94582,151231
15.95208,160764
15.95833,185909
15.96458,247413
15.97085,306435
15.97710,308979
15.98335,256309
15.98962,187845
15.99587,143839
16.00212,132129
16.00837,158051
16.01463,217944
16.02088,322293
16.02713,434635
16.03340,544220
16.03965,672602
16.04590,921583
16.05217,1251065
16.05842,1550717
16.06467,1415161
16.07093,1018293
16.07718,708052
16.08343,736647
16.08970,944899
16.09595,1123776
16.10220,1132122
16.10847,1001732
16.11472,1157669
16.12097,1704812
16.12723,2448143
16.13348,2871820
16.13973,2575083
16.14600,1565361
16.15225,750659
16.15850,377158
16.16477,271032
16.17102,254671
16.17727,254363
16.18353,243210
16.18978,257627
16.19603,305492
16.20230,362695
16.20855,356451
16.21480,316419
16.22107,350347
16.22732,641554
16.23357,1354893
16.23982,2375444
16.24608,2777706
16.25233,2257009
16.25858,1259543
16.26485,578919
16.27110,299469
16.27735,219131
16.28362,195037
16.28987,215817
16.29612,304751
16.30238,566017
16.30863,961187
16.31488,1269285
16.32115,1165433
16.32740,795266
16.33365,458442
16.33992,270996
16.34617,211320
16.35242,201719
16.35868,201515
16.36493,198277
16.37118,187366
16.37745,172394
16.38370,166388
16.38995,160212
16.39622,152288
16.40247,148619
16.40872,154969
16.41498,157844
16.42123,163018
16.42748,186333
16.43375,265189
16.44000,488866
16.44625,935136
16.45250,1347685
16.45877,1404257
16.46502,1131544
16.47127,819669
16.47753,604419
16.48378,477359
16.49003,368161
16.49630,315067
16.50255,284259
16.50880,299851
16.51507,373332
16.52132,493591
16.52757,615787
16.53383,680056
16.54008,626415
16.54633,525488
16.55260,453108
16.55885,400561
16.56510,356273
16.57137,330836
16.57762,299965
16.58387,299517
16.59013,294597
16.59638,310196
16.60263,295774
16.60890,300071
16.61515,309394
16.62140,312792
16.62767,333065
16.63392,345197
16.64017,361300
16.64643,398707
16.65268,436023
16.65893,449370
16.66520,419280
16.67145,366458
16.67770,345658
16.68395,354404
16.69022,363568
16.69647,356674
16.70272,329713
16.70898,301643
16.71523,265440
16.72148,251223
16.72775,249387
16.73400,261560
16.74025,270597
16.74652,273950
16.75277,294963
16.75902,307742
16.76528,349190
16.77153,444706
16.77778,618061
16.78405,870455
16.79030,1099674
16.79655,1549360
16.80282,2405895
16.80907,3586809
16.81532,4792848
16.82158,5661793
16.82783,6217289
16.83408,7596748
16.84035,1.008457E+07
16.84660,1.217472E+07
16.85285,1.334045E+07
16.85912,1.216765E+07
16.86537,9159661
16.87162,5740929
16.87788,4296286
16.88413,3303265
16.89038,2959877
16.89663,2649151
16.90290,2521199
16.90915,2318527
16.91540,2286924
16.92167,2310340
16.92792,2672543
16.93417,3211849
16.94043,3755273
16.94668,3936215
16.95293,3760487
16.95920,3610718
16.96545,3148100
16.97170,2720839
16.97797,2123747
16.98422,1666003
16.99047,1337243
16.99673,1171207
17.00298,1274869
17.00923,1900586
17.01550,3759009
17.02175,7384921
17.02800,1.287559E+07
17.03427,1.92432E+07
17.04052,2.436655E+07
17.04677,2.896989E+07
17.05303,3.59232E+07
17.05928,4.18851E+07
17.06553,4.690288E+07
17.07180,4.932321E+07
17.07805,4.885909E+07
17.08430,4.639758E+07
17.09057,4.351093E+07
17.09682,4.122184E+07
17.10307,3.924524E+07
17.10932,3.776967E+07
17.11558,3.64257E+07
17.12183,4.02154E+07
17.12808,3.294479E+07
17.13435,1.167167E+07
17.14060,1.065868E+07
17.14685,9776967
17.15312,9032312
17.15937,1.097459E+07
17.16562,1.746264E+07
17.17188,2.778165E+07
17.17813,3.826984E+07
17.18438,4.261794E+07
17.19065,3.868755E+07
17.19690,2.145715E+07
17.20315,6541693
17.20942,2831219
17.21567,3009305
17.22192,3863781
17.22818,4887906
17.23443,6760453
17.24068,9921998
17.24695,1.687499E+07
17.25320,2.747533E+07
17.25945,3.877418E+07
17.26572,4.589856E+07
17.27197,4.868242E+07
17.27822,4.726197E+07
17.28448,3.219759E+07
17.29073,1.152184E+07
17.29698,8018480
17.30325,1.151316E+07
17.30950,1.462734E+07
17.31575,1.437428E+07
17.32202,9389718
17.32827,4121780
17.33452,1780314
17.34077,1120181
17.34703,960711
17.35328,922691
17.35953,859963
17.36580,821632
17.37205,806031
17.37830,768892
17.38457,779118
17.39082,792134
17.39707,844033
17.40333,926108
17.40958,1190400
17.41583,1357365
17.42210,1330501
17.42835,1080274
17.43460,970197
17.44087,1075749
17.44712,1512311
17.45337,2440165
17.45963,3409913
17.46588,4010757
17.47213,3348422
17.47840,2227888
17.48465,1222611
17.49090,767668
17.49717,649551
17.50342,664290
17.50967,769293
17.51593,942063
17.52218,1111211
17.52843,1162801
17.53470,1038430
17.54095,820962
17.54720,681059
17.55347,682212
17.55972,889507
17.56597,1446792
17.57222,2865347
17.57848,5699479
17.58473,9590755
17.59098,1.18975E+07
17.59725,9744452
17.60350,5410455
17.60975,2304501
17.61602,1101471
17.62227,922437
17.62852,994146
17.63478,969308
17.64103,837238
17.64728,665150
17.65355,555759
17.65980,503895
17.66605,489576
17.67232,469905
17.67857,465783
17.68482,467162
17.69108,480086
17.69733,488605
17.70358,511769
17.70985,494656
17.71610,467696
17.72235,431737
17.72862,399924
17.73487,403384
17.74112,409155
17.74738,433666
17.75363,462195
17.75988,494380
17.76615,538964
17.77240,639333
17.77865,818465
17.78490,1101402
17.79117,1539343
17.79742,2367537
17.80367,3725763
17.80993,4977598
17.81618,5780947
17.82243,5484738
17.82870,4325751
17.83495,2614145
17.84120,1624574
17.84747,1248758
17.85372,1059670
17.85997,1224831
17.86623,2305807
17.87248,5035626
17.87873,8808539
17.88500,1.197409E+07
17.89125,1.153979E+07
17.89750,6810484
17.90377,2933332
17.91002,1229508
17.91627,681308
17.92253,564988
17.92878,513664
17.93503,496770
17.94130,465771
17.94755,437884
17.95380,429769
17.96007,440425
17.96632,461465
17.97257,475780
17.97883,470191
17.98508,483892
17.99133,522064
17.99758,601477
18.00385,699726
18.01010,816018
18.01635,867007
18.02262,785608
18.02887,650248
18.03512,520153
18.04138,457168
18.04763,424225
18.05388,406646
18.06015,376690
18.06640,353695
18.07265,329409
18.07892,332918
18.08517,342444
18.09142,383833
18.09768,442464
18.10393,489600
18.11018,507810
18.11645,503474
18.12270,533207
18.12895,712881
18.13522,1252952
18.14147,2286012
18.14772,3528263
18.15398,3905967
18.16023,3179852
18.16648,1648531
18.17275,779550
18.17900,460598
18.18525,355269
18.19152,319965
18.19777,312450
18.20402,302252
18.21028,322168
18.21653,350648
18.22278,380337
18.22903,384524
18.23530,368158
18.24155,331583
18.24780,318211
18.25407,315081
18.26032,332298
18.26657,350489
18.27283,398181
18.27908,474432
18.28533,594771
18.29160,851416
18.29785,1307202
18.30410,1954313
18.31037,2071868
18.31662,1808831
18.32287,1280075
18.32913,793922
18.33538,511851
18.34163,344024
18.34790,285065
18.35415,267663
18.36040,274011
18.36667,285147
18.37292,286649
18.37917,301255
18.38543,341798
18.39168,394654
18.39793,425813
18.40420,411195
18.41045,386428
18.41670,360185
18.42297,341910
18.42922,317737
18.43547,303792
18.44172,293963
18.44798,288123
18.45423,274677
18.46048,261539
18.46675,252680
18.47300,257226
18.47925,253202
18.48552,251069
18.49177,237402
18.49802,231241
18.50428,236106
18.51053,243761
18.51678,245882
18.52305,247071
18.52930,242694
18.53555,244450
18.54182,246518
18.54807,256266
18.55432,272856
18.56058,274652
18.56683,279770
18.57308,278776
18.57935,260839
18.58560,243744
18.59185,244334
18.59812,250350
18.60437,265385
18.61062,301675
18.61688,349739
18.62313,353981
18.62938,333363
18.63565,299630
18.64190,280303
18.64815,281697
18.65440,267819
18.66067,275268
18.66692,292886
18.67317,306667
18.67943,307274
18.68568,282031
18.69193,258497
18.69820,250654
18.70445,263170
18.71070,309457
18.71697,354570
18.72322,367175
18.72947,331071
18.73573,284914
18.74198,250848
18.74823,237093
18.75450,232241
18.76075,222691
18.76700,218761
18.77327,219296
18.77952,220973
18.78577,217726
18.79203,220226
18.79828,210606
18.80453,214309
18.81080,225267
18.81705,229974
18.82330,229061
18.82957,226790
18.83582,225480
18.84207,225392
18.84833,221077
18.85458,222308
18.86083,254039
18.86710,355988
18.87335,632713
18.87960,1501533
18.88585,3676079
18.89212,8215778
18.89837,1.43924E+07
18.90462,2.001347E+07
18.91088,1.99156E+07
18.91713,1.332966E+07
18.92338,5824150
18.92965,1923607
18.93590,686462
18.94215,449661
18.94842,417186
18.95467,379666
18.96092,315318
18.96718,256835
18.97343,221781
18.97968,207134
18.98595,196927
18.99220,201946
18.99845,210259
19.00472,227356
19.01097,237756
19.01722,244862
19.02348,238769
19.02973,230682
19.03598,223995
19.04225,241882
19.04850,265934
19.05475,273289
19.06102,261690
19.06727,240417
19.07352,220671
19.07978,222670
19.08603,238718
19.09228,250486
19.09853,265528
19.10480,272206
19.11105,279633
19.11730,287596
19.12357,292397
19.12982,299861
19.13607,301927
19.14233,304990
19.14858,291715
19.15483,257965
19.16110,240610
19.16735,225134
19.17360,206819
19.17987,198585
19.18612,202273
19.19237,208391
19.19863,209009
19.20488,215901
19.21113,210135
19.21740,205649
19.22365,198611
19.22990,199518
19.23617,188757
19.24242,179370
19.24867,178699
19.25493,176828
19.26118,172946
19.26743,171265
19.27370,175489
19.27995,174300
19.28620,177488
19.29247,190064
19.29872,188451
19.30497,184273
19.31122,181518
19.31748,170690
19.32373,166155
19.32998,163491
19.33625,172640
19.34250,193425
19.34875,208612
19.35502,234935
19.36127,240730
19.36752,234013
19.37378,221082
19.38003,211473
19.38628,207232
19.39255,214630
19.39880,233082
19.40505,259449
19.41132,271145
19.41757,257064
19.42382,241147
19.43008,224134
19.43633,209085
19.44258,206777
19.44885,214383
19.45510,215448
19.46135,206079
19.46762,197146
19.47387,189756
19.48012,192399
19.48638,194960
19.49263,204069
19.49888,215797
19.50515,224365
19.51140,230206
19.51765,248990
19.52392,250352
19.53017,250403
19.53642,233672
19.54267,239017
19.54893,262570
19.55518,286871
19.56143,314374
19.56770,311431
19.57395,269088
19.58020,222428
19.58647,200570
19.59272,184622
19.59897,178499
19.60523,181171
19.61148,178129
19.61773,170822
19.62400,176595
19.63025,188895
19.63650,219173
19.64277,237316
19.64902,245516
19.65527,237732
19.66153,224794
19.66778,238739
19.67403,282266
19.68030,337628
19.68655,352549
19.69280,337104
19.69907,314389
19.70532,293945
19.71157,310117
19.71783,327104
19.72408,307460
19.73033,274195
19.73660,255803
19.74285,241962
19.74910,243416
19.75535,235976
19.76162,223393
19.76787,236274
19.77412,249593
19.78038,253238
19.78663,251929
19.79288,234171
19.79915,234194
19.80540,247189
19.81165,253615
19.81792,238278
19.82417,203633
19.83042,181073
19.83668,174275
19.84293,169200
19.84918,181752
19.85545,195378
19.86170,221486
19.86795,253103
19.87422,268698
19.88047,265339
19.88672,245132
19.89298,222770
19.89923,234059
19.90548,350606
19.91175,744147
19.91800,1772612
19.92425,3739501
19.93052,5186844
19.93677,5133573
19.94302,3575357
19.94928,1650082
19.95553,648000
19.96178,342106
19.96805,314980
19.97430,379116
19.98055,456480
19.98680,506056
19.99307,480380
19.99932,417026
20.00557,322819
20.01183,268323
20.01808,245129
20.02433,227031
20.03060,218698
20.03685,205038
20.04310,219404
20.04937,230436
20.05562,252551
20.06187,250881
20.06813,233053
20.07438,211494
20.08063,197870
20.08690,189433
20.09315,209563
20.09940,224324
20.10567,233447
20.11192,224209
20.11817,203472
20.12443,190214
20.13068,182958
20.13693,185059
20.14320,188174
20.14945,193395
20.15570,198543
20.16197,210070
20.16822,207588
20.17447,198733
20.18073,200183
20.18698,192093
20.19323,198904
20.19948,208778
20.20575,229801
20.21200,255433
20.21825,302135
20.22452,352459
20.23077,399798
20.23702,442521
20.24328,415030
20.24953,355488
20.25578,302000
20.26205,241116
20.26830,216554
20.27455,201163
20.28082,202514
20.28707,225694
20.29332,304970
20.29958,489872
20.30583,739167
20.31208,918541
20.31835,890867
20.32460,646340
20.33085,410010
20.33712,289277
20.34337,249539
20.34962,251721
20.35588,252479
20.36213,250497
20.36838,231318
20.37465,239480
20.38090,225823
20.38715,226146
20.39342,205413
20.39967,198884
20.40592,193345
20.41218,199905
20.41843,223393
20.42468,278237
20.43093,432145
20.43720,713323
20.44345,1173225
20.44970,1418679
20.45597,1397944
20.46222,975453
20.46847,593242
20.47473,424632
20.48098,432818
20.48723,539439
20.49350,615190
20.49975,560731
20.50600,434573
20.51227,319363
20.51852,265542
20.52477,260408
20.53103,249048
20.53728,249263
20.54353,261955
20.54980,305676
20.55605,361380
20.56230,407206
20.56857,380063
20.57482,319491
20.58107,277437
20.58733,278544
20.59358,312506
20.59983,348190
20.60610,364752
20.61235,360209
20.61860,332885
20.62487,287333
20.63112,243141
20.63737,209629
20.64362,200565
20.64988,204642
20.65613,219778
20.66238,230897
20.66865,244011
20.67490,239368
20.68115,235522
20.68742,243902
20.69367,230198
20.69992,223196
20.70618,240872
20.71243,315336
20.71868,459442
20.72495,714745
20.73120,919808
20.73745,902073
20.74372,710400
20.74997,518338
20.75622,412407
20.76248,428266
20.76873,573700
20.77498,735009
20.78125,769883
20.78750,645034
20.79375,496842
20.80002,382891
20.80627,316583
20.81252,279285
20.81878,246746
20.82503,226811
20.83128,228605
20.83755,250359
20.84380,269311
20.85005,272844
20.85632,263719
20.86257,258333
20.86882,244092
20.87507,233335
20.88133,229488
20.88758,239925
20.89383,256004
20.90010,264635
20.90635,280100
20.91260,278445
20.91887,282571
20.92512,291086
20.93137,311016
20.93763,407853
20.94388,643702
20.95013,899094
20.95640,1023077
20.96265,943598
20.96890,706517
20.97517,548319
20.98142,459567
20.98767,388217
20.99393,331271
21.00018,322043
21.00643,391726
21.01270,550452
21.01895,697117
21.02520,716376
21.03147,606089
21.03772,446276
21.04397,352504
21.05023,301675
21.05648,288969
21.06273,261159
21.06900,255793
21.07525,263727
21.08150,288165
21.08775,303586
21.09402,301159
21.10027,266508
21.10652,237583
21.11278,223393
21.11903,229679
21.12528,223782
21.13155,227917
21.13780,213540
21.14405,205664
21.15032,199657
21.15657,196927
21.16282,197501
21.16908,213647
21.17533,228392
21.18158,240478
21.18785,239498
21.19410,225376
21.20035,220671
21.20662,221930
21.21287,228946
21.21912,238755
21.22538,236056
21.23163,232676
21.23788,241753
21.24415,254598
21.25040,278801
21.25665,278533
21.26292,263294
21.26917,243137
21.27542,249661
21.28168,287914
21.28793,336536
21.29418,363497
21.30043,340543
21.30670,289992
21.31295,243071
21.31920,233084
21.32547,243630
21.33172,278398
21.33797,294141
21.34423,293772
21.35048,264259
21.35673,256689
21.36300,273853
21.36925,328049
21.37550,347463
21.38177,372811
21.38802,332199
21.39427,277234
21.40053,237683
21.40678,219613
21.41303,231616
21.41930,256889
21.42555,296963
21.43180,327680
21.43807,334801
21.44432,321814
21.45057,299660
21.45683,316733
21.46308,393206
21.46933,480496
21.47560,497396
21.48185,446662
21.48810,353975
21.49437,310551
21.50062,294840
21.50687,304037
21.51313,301633
21.51938,264024
21.52563,227391
21.53188,195851
21.53815,189245
21.54440,185543
21.55065,188384
21.55692,179908
21.56317,180852
21.56942,196226
21.57568,217006
21.58193,225388
21.58818,242019
21.59445,264796
21.60070,307482
21.60695,322084
21.61322,295176
21.61947,244407
21.62572,195257
21.63198,177906
21.63823,161007
21.64448,154136
21.65075,147857
21.65700,143479
21.66325,141579
21.66952,147386
21.67577,158874
21.68202,169748
21.68828,179206
21.69453,184478
21.70078,175931
21.70705,165793
21.71330,154759
21.71955,152471
21.72582,143772
21.73207,148902
21.73832,153099
21.74457,153698
21.75083,154669
21.75708,166408
21.76333,167670
21.76960,172789
21.77585,176110
21.78210,179395
21.78837,194313
21.79462,224808
21.80087,236554
21.80713,240229
21.81338,233103
21.81963,233909
21.82590,223332
21.83215,211898
21.83840,203175
21.84467,197418
21.85092,205473
21.85717,216054
21.86343,242116
21.86968,268943
21.87593,288950
21.88220,283501
21.88845,246744
21.89470,218656
21.90097,212169
21.90722,244408
21.91347,298511
21.91973,334509
21.92598,325987
21.93223,283450
21.93850,244281
21.94475,240569
21.95100,223168
21.95725,199700
21.96352,182418
21.96977,164084
21.97602,173360
21.98228,185046
21.98853,193157
21.99478,206322
22.00105,202085
22.00730,195699
22.01355,188836
22.01982,192502
22.02607,190539
22.03232,200998
22.03858,212141
22.04483,224857
22.05108,260044
22.05735,289162
22.06360,293402
22.06985,313441
22.07612,350624
22.08237,366373
22.08862,351602
22.09488,304235
22.10113,264298
22.10738,247558
22.11365,237861
22.11990,232744
22.12615,229046
22.13242,239360
22.13867,227917
22.14492,211838
22.15118,205469
22.15743,200230
22.16368,202572
22.16995,198630
22.17620,204485
22.18245,201611
22.18870,204716
22.19497,205699
22.20122,214515
22.20747,207639
22.21373,191964
22.21998,183428
22.22623,179227
22.23250,184949
22.23875,193574
22.24500,222932
22.25127,264870
22.25752,326859
22.26377,390966
22.27003,426202
22.27628,405371
22.28253,369244
22.28880,339775
22.29505,331358
22.30130,334359
22.30757,312459
22.31382,282775
22.32007,252910
22.32633,245304
22.33258,250863
22.33883,248190
22.34510,260131
22.35135,318989
22.35760,547026
22.36387,966599
22.37012,1584227
22.37637,1858578
22.38263,1610728
22.38888,1032057
22.39513,567791
22.40138,313326
22.40765,247536
22.41390,230686
22.42015,228269
22.42642,234088
22.43267,251349
22.43892,278696
22.44518,316600
22.45143,375397
22.45768,464383
22.46395,553111
22.47020,612929
22.47645,579482
22.48272,471115
22.48897,357486
22.49522,296638
22.50148,260159
22.50773,250408
22.51398,237667
22.52025,224721
22.52650,218577
22.53275,238957
22.53902,306238
22.54527,456481
22.55152,648743
22.55778,779632
22.56403,724019
22.57028,601469
22.57655,455494
22.58280,356182
22.58905,308628
22.59532,298712
22.60157,287745
22.60782,266269
22.61407,266097
22.62033,268316
22.62658,260645
22.63283,262709
22.63910,278736
22.64535,303180
22.65160,329660
22.65787,329123
22.66412,310897
22.67037,306570
22.67663,336070
22.68288,352969
22.68913,367900
22.69540,369235
22.70165,344336
22.70790,291153
22.71417,267032
22.72042,247964
22.72667,242187
22.73293,249138
22.73918,250529
22.74543,260509
22.75170,270020
22.75795,275386
22.76420,288060
22.77047,291613
22.77672,318758
22.78297,449497
22.78923,925293
22.79548,2541897
22.80173,6601402
22.80800,1.239901E+07
22.81425,1.941724E+07
22.82050,2.230181E+07
22.82677,1.673927E+07
22.83302,8675256
22.83927,3238555
22.84552,1161280
22.85178,613711
22.85803,462582
22.86428,395023
22.87055,363862
22.87680,347641
22.88305,333516
22.88932,314199
22.89557,309983
22.90182,295796
22.90808,293506
22.91433,286360
22.92058,288270
22.92685,271208
22.93310,285305
22.93935,296876
22.94562,295518
22.95187,312313
22.95812,301455
22.96438,296991
22.97063,312201
22.97688,351394
22.98315,417871
22.98940,467058
22.99565,466133
23.00192,437860
23.00817,360352
23.01442,292182
23.02068,273384
23.02693,243813
23.03318,239451
23.03945,254983
23.04570,246201
23.05195,261965
23.05820,282722
23.06447,320048
23.07072,413449
23.07697,568031
23.08323,696123
23.08948,714191
23.09573,599918
23.10200,459280
23.10825,355164
23.11450,293722
23.12077,262625
23.12702,254791
23.13327,241794
23.13953,225458
23.14578,220593
23.15203,217824
23.15830,216732
23.16455,206766
23.17080,202727
23.17707,215037
23.18332,219585
23.18957,222749
23.19583,220108
23.20208,225082
23.20833,224348
23.21460,234427
23.22085,217703
23.22710,207439
23.23337,198754
23.23962,197258
23.24587,201539
23.25213,201434
23.25838,207913
23.26463,202565
23.27090,197537
23.27715,191743
23.28340,188047
23.28965,191086
23.29592,198013
23.30217,229642
23.30842,294229
23.31468,391412
23.32093,468610
23.32718,474368
23.33345,405457
23.33970,320243
23.34595,260813
23.35222,229610
23.35847,210920
23.36472,198496
23.37098,194879
23.37723,188415
23.38348,189797
23.38975,192660
23.39600,195425
23.40225,192310
23.40852,187895
23.41477,185314
23.42102,187842
23.42728,180405
23.43353,182478
23.43978,183922
23.44605,196504
23.45230,205573
23.45855,221765
23.46482,235217
23.47107,244124
23.47732,255718
23.48358,282735
23.48983,314553
23.49608,327685
23.50233,337931
23.50860,387301
23.51485,484016
23.52110,622414
23.52737,661439
23.53362,598307
23.53987,462335
23.54613,343244
23.55238,276866
23.55863,256449
23.56490,261815
23.57115,300706
23.57740,387622
23.58367,468082
23.58992,529615
23.59617,544331
23.60243,490743
23.60868,429741
23.61493,370452
23.62120,322162
23.62745,280725
23.63370,265411
23.63997,262611
23.64622,265359
23.65247,269988
23.65873,253025
23.66498,237032
23.67123,219920
23.67750,216562
23.68375,223515
23.69000,252066
23.69627,277079
23.70252,293340
23.70877,279392
23.71503,280883
23.72128,314647
23.72753,401421
23.73378,491962
23.74005,537114
23.74630,493733
23.75255,410082
23.75882,312260
23.76507,258710
23.77132,237156
23.77758,231939
23.78383,235257
23.79008,241002
23.79635,244232
23.80260,245018
23.80885,258797
23.81512,280656
23.82137,301938
23.82762,315630
23.83388,308456
23.84013,289288
23.84638,264643
23.85265,247059
23.85890,241163
23.86515,243883
23.87142,248865
23.87767,258747
23.88392,287944
23.89018,340972
23.89643,383463
23.90268,399659
23.90895,382831
23.91520,340763
23.92145,299815
23.92772,285976
23.93397,270996
23.94022,279945
23.94647,287764
23.95273,343089
23.95898,587891
23.96523,1422318
23.97150,2924894
23.97775,5105167
23.98400,8549912
23.99027,1.289792E+07
23.99652,1.933301E+07
24.00277,2.530521E+07
24.00903,2.872131E+07
24.01528,2.519221E+07
24.02153,1.628688E+07
24.02780,8122894
24.03405,3516331
24.04030,1706700
24.04657,1115118
24.05282,877873
24.05907,725190
24.06533,647768
24.07158,631523
24.07783,682418
24.08410,725448
24.09035,735161
24.09660,770209
24.10287,1078766
24.10912,2000975
24.11537,3578009
24.12163,5355089
24.12788,6173465
24.13413,5691297
24.14040,3974219
24.14665,2310648
24.15290,1230039
24.15917,722567
24.16542,536668
24.17167,478112
24.17792,462902
24.18418,518327
24.19043,637562
24.19668,846823
24.20295,1446448
24.20920,3246302
24.21545,6695139
24.22172,1.287025E+07
24.22797,2.04688E+07
24.23422,2.781047E+07
24.24048,3.410287E+07
24.24673,3.948877E+07
24.25298,4.134805E+07
24.25925,4.248072E+07
24.26550,4.274138E+07
24.27175,4.209632E+07
24.27802,4.158182E+07
24.28427,2.664561E+07
24.29052,6158256
24.29678,2544392
24.30303,1825862
24.30928,1537508
24.31555,1350467
24.32180,1233804
24.32805,1154470
24.33432,1105361
24.34057,1100885
24.34682,1119801
24.35308,1117336
24.35933,1122620
24.36558,1196998
24.37185,1218908
24.37810,1272648
24.38435,1295906
24.39060,1254045
24.39687,1174733
24.40312,1074950
24.40937,980377
24.41563,919939
24.42188,891641
24.42813,939609
24.43440,1074615
24.44065,1347539
24.44690,1605844
24.45317,1677769
24.45942,1469321
24.46567,1159373
24.47193,894328
24.47818,725496
24.48443,638295
24.49070,601457
24.49695,571996
24.50320,551865
24.50947,533121
24.51572,519221
24.52197,520418
24.52823,500332
24.53448,491879
24.54073,475010
24.54700,474508
24.55325,466162
24.55950,441350
24.56577,436788
24.57202,426798
24.57827,447902
24.58453,473518
24.59078,489775
24.59703,484025
24.60328,455418
24.60955,422911
24.61580,380875
24.62205,351684
24.62832,332562
24.63457,325259
24.64082,324179
24.64708,321928
24.65333,308543
24.65958,297569
24.66585,293284
24.67210,293165
24.67835,305546
24.68462,331286
24.69087,360088
24.69712,370817
24.70338,349760
24.70963,335225
24.71588,320827
24.72215,308075
24.72840,290223
24.73465,273645
24.74092,263447
24.74717,256497
24.75342,247551
24.75968,243735
24.76593,247188
24.77218,249919
24.77845,263264
24.78470,273121
24.79095,282195
24.79722,272077
24.80347,253233
24.80972,232266
24.81598,220844
24.82223,214115
24.82848,210977
24.83473,205258
24.84100,198243
24.84725,191148
24.85350,192344
24.85977,193599
24.86602,203831
24.87227,217367
24.87853,237247
24.88478,271132
24.89103,324217
24.89730,360831
24.90355,366787
24.90980,331266
24.91607,301709
24.92232,285686
24.92857,293714
24.93483,302045
24.94108,305175
24.94733,350829
24.95360,440047
24.95985,566144
24.96610,618526
24.97237,576045
24.97862,445021
24.98487,335624
24.99113,280660
24.99738,258409
25.00363,243954
25.00990,236910
25.01615,226287
25.02240,228768
25.02867,230261
25.03492,238358
25.04117,245766
25.04742,246080
25.05368,233570
25.05993,223114
25.06618,213770
25.07245,206748
25.07870,209644
25.08495,206734
25.09122,208150
25.09747,206388
25.10372,206753
25.10998,209446
25.11623,209748
25.12248,215863
25.12875,239113
25.13500,250186
25.14125,253230
25.14752,246750
25.15377,213752
25.16002,192158
25.16628,177350
25.17253,187680
25.17878,200239
25.18505,235647
25.19130,276829
25.19755,309263
25.20382,309295
25.21007,274981
25.21632,225788
25.22258,199015
25.22883,181494
25.23508,170955
25.24135,167517
25.24760,165194
25.25385,164504
25.26010,162593
25.26637,162457
25.27262,163609
25.27887,172448
25.28513,198446
25.29138,249031
25.29763,318565
25.30390,359085
25.31015,380318
25.31640,327863
25.32267,265307
25.32892,216747
25.33517,195456
25.34143,175912
25.34768,172567
25.35393,166294
25.36020,164953
25.36645,166066
25.37270,169467
25.37897,169053
25.38522,174486
25.39147,188060
25.39773,225413
25.40398,303381
25.41023,418407
25.41650,522042
25.42275,536431
25.42900,477461
25.43527,383856
25.44152,311503
25.44777,268480
25.45403,246440
25.46028,224827
25.46653,212007
25.47280,203313
25.47905,194920
25.48530,197493
25.49155,225552
25.49782,263527
25.50407,333812
25.51032,385396
25.51658,402885
25.52283,366280
25.52908,333786
25.53535,333631
25.54160,404061
25.54785,504482
25.55412,583216
25.56037,532874
25.56662,404696
25.57288,300522
25.57913,236564
25.58538,202152
25.59165,183791
25.59790,181833
25.60415,181477
25.61042,182203
25.61667,185762
25.62292,179060
25.62918,173313
25.63543,167781
25.64168,162065
25.64795,161436
25.65420,155117
25.66045,149795
25.66672,151880
25.67297,147518
25.67922,148088
25.68548,157657
25.69173,157737
25.69798,158379
25.70423,155630
25.71050,153520
25.71675,150978
25.72300,147121
25.72927,144463
25.73552,144713
25.74177,146487
25.74803,148655
25.75428,151880
25.76053,156026
25.76680,153274
25.77305,155975
25.77930,150910
25.78557,146120
25.79182,146262
25.79807,141986
25.80433,141107
25.81058,139290
25.81683,141741
25.82310,135313
25.82935,132669
25.83560,138236
25.84187,133726
25.84812,135138
25.85437,137972
25.86063,142260
25.86688,141714
25.87313,146028
25.87940,144730
25.88565,142753
25.89190,141457
25.89817,139202
25.90442,139161
25.91067,136867
25.91692,138016
25.92318,132440
25.92943,138027
25.93568,137190
25.94195,137624
25.94820,144284
25.95445,141629
25.96072,139573
25.96697,136504
25.97322,138664
25.97948,147446
25.98573,154230
25.99198,155577
25.99825,155621
26.00450,152793
26.01075,145706
26.01702,144488
26.02327,146461
26.02952,151754
26.03578,148736
26.04203,148095
26.04828,146694
26.05455,156401
26.06080,159350
26.06705,160953
26.07332,155004
26.07957,151283
26.08582,143591
26.09208,143004
26.09833,138786
26.10458,141753
26.11085,145262
26.11710,144655
26.12335,141050
26.12962,140476
26.13587,135739
26.14212,135058
26.14837,134138
26.15463,134673
26.16088,131855
26.16713,138577
26.17340,135367
26.17965,142253
26.18590,138177
26.19217,142550
26.19842,141723
26.20467,136748
26.21093,135718
26.21718,137575
26.22343,132544
26.22970,134445
26.23595,135154
26.24220,136384
26.24847,133500
26.25472,136296
26.26097,133517
26.26723,136252
26.27348,133012
26.27973,133426
26.28600,131295
26.29225,137028
26.29850,138376
26.30477,135088
26.31102,136439
26.31727,135473
26.32353,140097
26.32978,134803
26.33603,137113
26.34230,137845
26.34855,138569
26.35480,142303
26.36105,149148
26.36732,171982
26.37357,214175
26.37982,258783
26.38608,313170
26.39233,344298
26.39858,312025
26.40485,246980
26.41110,191779
26.41735,166501
26.42362,154022
26.42987,153377
26.43612,151286
26.44238,149519
26.44863,144994
26.45488,152079
26.46115,147002
26.46740,147933
26.47365,152479
26.47992,152104
26.48617,153502
26.49242,155450
26.49868,157196
26.50493,155352
26.51118,154356
26.51745,150226
26.52370,156930
26.52995,169964
26.53622,184560
26.54247,196906
26.54872,191253
26.55498,177429
26.56123,167986
26.56748,156016
26.57375,151848
26.58000,146172
26.58625,150344
26.59250,148444
26.59877,153440
26.60502,152713
26.61127,163369
26.61753,176057
26.62378,179747
26.63003,181319
26.63630,169994
26.64255,166332
26.64880,164019
26.65507,191180
26.66132,247491
26.66757,359305
26.67383,524937
26.68008,625479
26.68633,612396
26.69260,520855
26.69885,428914
26.70510,385463
26.71137,362395
26.71762,335008
26.72387,286907
26.73013,248340
26.73638,217799
26.74263,210372
26.74890,202113
26.75515,219402
26.76140,264061
26.76767,339586
26.77392,426217
26.78017,464068
26.78643,408848
26.79268,348315
26.79893,320370
26.80518,314378
26.81145,297876
26.81770,278839
26.82395,283859
26.83022,338461
26.83647,457985
26.84272,616892
26.84898,671544
26.85523,565419
26.86148,426596
26.86775,324624
26.87400,269897
26.88025,260957
26.88652,296107
26.89277,344963
26.89902,415588
26.90528,552448
26.91153,1075498
26.91778,2524435
26.92405,5663802
26.93030,1.015669E+07
26.93655,1.618265E+07
26.94282,2.16642E+07
26.94907,2.44764E+07
26.95532,1.979952E+07
26.96158,9304378
26.96783,3997871
26.97408,2147952
26.98035,1366810
26.98660,888381
26.99285,615358
26.99912,469958
27.00537,412678
27.01162,444504
27.01788,613491
27.02413,934693
27.03038,1324610
27.03663,1469973
27.04290,1302337
27.04915,980227
27.05540,679420
27.06167,497588
27.06792,425220
27.07417,396108
27.08043,355156
27.08668,325959
27.09293,297253
27.09920,275708
27.10545,250247
27.11170,243925
27.11797,242425
27.12422,253834
27.13047,287760
27.13673,370936
27.14298,461134
27.14923,501240
27.15550,452358
27.16175,368605
27.16800,308361
27.17427,277449
27.18052,265504
27.18677,265049
27.19303,258832
27.19928,252121
27.20553,238518
27.21180,237335
27.21805,234424
27.22430,242680
27.23057,237260
27.23682,233006
27.24307,229962
27.24932,238663
27.25558,242339
27.26183,251293
27.26808,259173
27.27435,246783
27.28060,229229
27.28685,220884
27.29312,217786
27.29937,222276
27.30562,221610
27.31188,216792
27.31813,220896
27.32438,219059
27.33065,214791
27.33690,220005
27.34315,209267
27.34942,213568
27.35567,222462
27.36192,226595
27.36818,230911
27.37443,232610
27.38068,221434
27.38695,219423
27.39320,219191
27.39945,223790
27.40572,245521
27.41197,267675
27.41822,291416
27.42448,292334
27.43073,283519
27.43698,260923
27.44325,239046
27.44950,227531
27.45575,218171
27.46202,204229
27.46827,202331
27.47452,198016
27.48077,200478
27.48703,203157
27.49328,199403
27.49953,200765
27.50580,194061
27.51205,195497
27.51830,194101
27.52457,194621
27.53082,191356
27.53707,197437
27.54333,195336
27.54958,198303
27.55583,191614
27.56210,190091
27.56835,189776
27.57460,186966
27.58087,195635
27.58712,186930
27.59337,191014
27.59963,191454
27.60588,200585
27.61213,192866
27.61840,194108
27.62465,194707
27.63090,191322
27.63717,200412
27.64342,201357
27.64967,193573
27.65593,196861
27.66218,191095
27.66843,196271
27.67470,194460
27.68095,195628
27.68720,197936
27.69345,199885
27.69972,206505
27.70597,196076
27.71222,199738
27.71848,204843
27.72473,217701
27.73098,217236
27.73725,222634
27.74350,215018
27.74975,212785
27.75602,212139
27.76227,210546
27.76852,217985
27.77478,213664
27.78103,215408
27.78728,206595
27.79355,206333
27.79980,202419
27.80605,200054
27.81232,196250
27.81857,196083
27.82482,199272
27.83108,197034
27.83733,202285
27.84358,205773
27.84985,241681
27.85610,301164
27.86235,389919
27.86862,508273
27.87487,613406
27.88112,621331
27.88738,539531
27.89363,442814
27.89988,370950
27.90613,317796
27.91240,299243
27.91865,278868
27.92490,261616
27.93117,248508
27.93742,245179
27.94367,244228
27.94993,241846
27.95618,234950
27.96243,230423
27.96870,228153
27.97495,224246
27.98120,225232
27.98747,230015
27.99372,233501
27.99997,243759
28.00623,232606
28.01248,238988
28.01873,226374
28.02500,231823
28.03125,227066
28.03750,222967
28.04377,219876
28.05002,222222
28.05627,220303
28.06253,210381
28.06878,211197
28.07503,213952
28.08130,210292
28.08755,219267
28.09380,211264
28.10007,218336
28.10632,221357
28.11257,211796
28.11883,209700
28.12508,217372
28.13133,212327
28.13758,216402
28.14385,212151
28.15010,216999
28.15635,214939
28.16262,220031
28.16887,210270
28.17512,213884
28.18138,208767
28.18763,211937
28.19388,210558
28.20015,214286
28.20640,210510
28.21265,209080
28.21892,213723
28.22517,211894
28.23142,216876
28.23768,217264
28.24393,214135
28.25018,214657
28.25645,209727
28.26270,213621
28.26895,210942
28.27522,211326
28.28147,214133
28.28772,219549
28.29398,221590
28.30023,219703
28.30648,226985
28.31275,230567
28.31900,232670
28.32525,232567
28.33152,234843
28.33777,245485
28.34402,252399
28.35027,251318
28.35653,256952
28.36278,254798
28.36903,257536
28.37530,274102
28.38155,278677
28.38780,288242
28.39407,295327
28.40032,291212
28.40657,298483
28.41283,306849
28.41908,308706
28.42533,304672
28.43160,307422
28.43785,302762
28.44410,300654
28.45037,294962
28.45662,292660
28.46287,283031
28.46913,277448
28.47538,273006
28.48163,275099
28.48790,271332
28.49415,264739
28.50040,257123
28.50667,258490
28.51292,254079
28.51917,253176
28.52543,256968
28.53168,251946
28.53793,248154
28.54420,237805
28.55045,233147
28.55670,230879
28.56295,234860
28.56922,237049
28.57547,225096
28.58172,228897
28.58798,220635
28.59423,222070
28.60048,224427
28.60675,217790
28.61300,225897
28.61925,216422
28.62552,218990
28.63177,217042
28.63802,225776
28.64428,225082
28.65053,224956
28.65678,224654
28.66305,215789
28.66930,219191
28.67555,219992
28.68182,217378
28.68807,218232
28.69432,215425
28.70058,213214
28.70683,216172
28.71308,214288
28.71935,219175
28.72560,212563
28.73185,215499
28.73812,220819
28.74437,225073
28.75062,218586
28.75688,216361
28.76313,218581
28.76938,209146
28.77565,211149
28.78190,211275
28.78815,209068
28.79440,212151
28.80067,214869
28.80692,211801
28.81317,214290
28.81943,213207
28.82568,206673
28.83193,215159
28.83820,208225
28.84445,207115
28.85070,205887
28.85697,211350
28.86322,207458
28.86947,212083
28.87573,206691
28.88198,205425
28.88823,204732
28.89450,205535
28.90075,209068
28.90700,204759
28.91327,203951
28.91952,209615
28.92577,205042
28.93203,204870
28.93828,208167
28.94453,205143
28.95080,213156
28.95705,203593
28.96330,209095
28.96957,207298
28.97582,203179
28.98207,203760
28.98833,201056
28.99458,208637
29.00083,204880
29.00708,204876
29.01335,203501
29.01960,205824
29.02585,203879
29.03212,209366
29.03837,210218
29.04462,208833
29.05088,203703
29.05713,204280
29.06338,209249
29.06965,207094
29.07590,202467
29.08215,205477
29.08842,197984
29.09467,205539
29.10092,204285
29.10718,201259
29.11343,213038
29.11968,200552
29.12595,200944
29.13220,201354
29.13845,207874
29.14472,201112
29.15097,209649
29.15722,202611
29.16348,208308
29.16973,204877
29.17598,200969
29.18225,201669
29.18850,205691
29.19475,206334
29.20102,202184
29.20727,207481
29.21352,212839
29.21978,217855
29.22603,238916
29.23228,261146
29.23853,310608
29.24480,353764
29.25105,400508
29.25730,426254
29.26357,408017
29.26982,380682
29.27607,341557
29.28233,306164
29.28858,278808
29.29483,259431
29.30110,254395
29.30735,243972
29.31360,232325
29.31987,226793
29.32612,227037
29.33237,226681
29.33863,228712
29.34488,225019
29.35113,221924
29.35740,216811
29.36365,215229
29.36990,218286
29.37617,215151
29.38242,215947
29.38867,214683
29.39493,209425
29.40118,207225
29.40743,209605
29.41370,206849
29.41995,208824
29.42620,204428
29.43247,205875
29.43872,202851
29.44497,208715
29.45122,200252
29.45748,213193
29.46373,203059
29.46998,209781
29.47625,200584
29.48250,203015
29.48875,200961
29.49502,199572
29.50127,199668
29.50752,199635
29.51378,199358
29.52003,197465
29.52628,199565
29.53255,198629
29.53880,203337
29.54505,197163
29.55132,195732
29.55757,207283
29.56382,198105
29.57008,197887
29.57633,204390
29.58258,199845
29.58885,192944
29.59510,201167
29.60135,198019
29.60762,205398
29.61387,195947
29.62012,205013
29.62638,202175
29.63263,198155
29.63888,196370
29.64515,192926
29.65140,196454
29.65765,198956
29.66392,194659
29.67017,198471
29.67642,200452
29.68267,202537
29.68893,193135
29.69518,194016
29.70143,203304
29.70770,199009
29.71395,193510
29.72020,197585
29.72647,191869
29.73272,197153
29.73897,193996
29.74523,190416
29.75148,194608
29.75773,191863
29.76400,200540
29.77025,196282
29.77650,192965
29.78277,192321
29.78902,192097
29.79527,201824
29.80153,195744
29.80778,194264
29.81403,191999
29.82030,193267
29.82655,194992
29.83280,199782
29.83907,197026
29.84532,195864
29.85157,190888
29.85783,197629
29.86408,194965
29.87033,196809
29.87660,196123
29.88285,197138
29.88910,195308
29.89535,191027
29.90162,196664
29.90787,192461
29.91412,192674
29.92038,189715
29.92663,196980
29.93288,190489
29.93915,190389
29.94540,189430
29.95165,188302
29.95792,190907
29.96417,193574
29.97042,185394
29.97668,194742
29.98293,187090
29.98918,195000
29.99545,195815
30.00170,194288
30.00795,196923
30.01422,188224
30.02047,188299
30.02672,193008
30.03298,197194
30.03923,187889
30.04548,194020
30.05175,184197
30.05800,193581
30.06425,195677
30.07052,191589
30.07677,188323
30.08302,192579
30.08928,185288
30.09553,188691
30.10178,184663
30.10805,187260
30.11430,190803
30.12055,187469
30.12680,186803
30.13307,188331
30.13932,189555
30.14557,193336
30.15183,193256
30.15808,186087
30.16433,185414
30.17060,188988
30.17685,187885
30.18310,183584
30.18937,183241
30.19562,183013
30.20187,186684
30.20813,184672
30.21438,186175
30.22063,185333
30.22690,187704
30.23315,186704
30.23940,183712
30.24567,183390
30.25192,192985
30.25817,188941
30.26443,187067
30.27068,184453
30.27693,190231
30.28320,184807
30.28945,189358
30.29570,189806
30.30197,185695
30.30822,189003
30.31447,188238
30.32073,192944
30.32698,188793
30.33323,181405
30.33948,182927
30.34575,180602
30.35200,179558
30.35825,179817
30.36452,179487
30.37077,180907
30.37702,180678
30.38328,183223
30.38953,182524
30.39578,191370
30.40205,183089
30.40830,182376
30.41455,184659
30.42082,180043
30.42707,185176
30.43332,179855
30.43958,179227
30.44583,187219
30.45208,187134
30.45835,184011
30.46460,187889
30.47085,183994
30.47712,188619
30.48337,186541
30.48962,178845
30.49588,180331
30.50213,188662
30.50838,177583
30.51465,177242
30.52090,181548
30.52715,187839
30.53342,184115
30.53967,182987
30.54592,180378
30.55217,178450
30.55843,180596
30.56468,178763
30.57093,186503
30.57720,181747
30.58345,184437
30.58970,184630
30.59597,182075
30.60222,179516
30.60847,175619
30.61473,178531
30.62098,180494
30.62723,181006
30.63350,176923
30.63975,179202
30.64600,187997
30.65227,183457
30.65852,181528
30.66477,182059
30.67103,184762
30.67728,188415
30.68353,189709
30.68980,187470
30.69605,196494
30.70230,201519
30.70857,201372
30.71482,202389
30.72107,202693
30.72733,195543
30.73358,190912
30.73983,190350
30.74610,191643
30.75235,187383
30.75860,179873
30.76487,183608
30.77112,182843
30.77737,182982
30.78362,180597
30.78988,184760
30.79613,187785
30.80238,180302
30.80865,179709
30.81490,182628
30.82115,184733
30.82742,181187
30.83367,180044
30.83992,184552
30.84618,184113
30.85243,177144
30.85868,178193
30.86495,181615
30.87120,183394
30.87745,182963
30.88372,182108
30.88997,184799
30.89622,178483
30.90248,177012
30.90873,185696
30.91498,175822
30.92125,175587
30.92750,177543
30.93375,184003
30.94002,176045
30.94627,180663
30.95252,183374
30.95878,175565
30.96503,175085
30.97128,183211
30.97755,192212
30.98380,192487
30.99005,198437
30.99630,210169
31.00257,222766
31.00882,239674
31.01507,250466
31.02133,261922
31.02758,255566
31.03383,253928
31.04010,240367
31.04635,233286
31.05260,213216
31.05887,207851
31.06512,199998
31.07137,193997
31.07763,195114
31.08388,187054
31.09013,194699
31.09640,187521
31.10265,186470
31.10890,184890
31.11517,188614
31.12142,182482
31.12767,184814
31.13393,183665
31.14018,183226
31.14643,186627
31.15270,180343
31.15895,186103
31.16520,176037
31.17147,181305
31.17772,180499
31.18397,177831
31.19023,178601
31.19648,184733
31.20273,176462
31.20898,175391
31.21525,182474
31.22150,177718
31.22775,183086
31.23402,178624
31.24027,180153
31.24652,178016
31.25278,174379
31.25903,181438
31.26528,180634
31.27155,178632
31.27780,178215
31.28405,173359
31.29032,175726
31.29657,179466
31.30282,174978
31.30908,176900
31.31533,175173
31.32158,172775
31.32785,174158
31.33410,174111
31.34035,173032
31.34662,181235
31.35287,179698
31.35912,175150
31.36538,179421
31.37163,185541
31.37788,175995
31.38415,179150
31.39040,176899
31.39665,182362
31.40292,175876
31.40917,179386
31.41542,178687
31.42168,179671
31.42793,173680
31.43418,178690
31.44043,178948
31.44670,181089
31.45295,179541
31.45920,179752
31.46547,177787
31.47172,175085
31.47797,174732
31.48423,176465
31.49048,174317
31.49673,179642
31.50300,172769
31.50925,183056
31.51550,174823
31.52177,174985
31.52802,172202
31.53427,173692
31.54053,171436
31.54678,171172
31.55303,176216
31.55930,172686
31.56555,171387
31.57180,177817
31.57807,176333
31.58432,174548
31.59057,171642
31.59683,175397
31.60308,173933
31.60933,172079
31.61560,176755
31.62185,166980
31.62810,169763
31.63437,172297
31.64062,166787
31.64687,169038
31.65312,170197
31.65938,168817
31.66563,171054
31.67188,169803
31.67815,172594
31.68440,168695
31.69065,166699
31.69692,169836
31.70317,167975
31.70942,174445
31.71568,167197
31.72193,173948
31.72818,169451
31.73445,169278
31.74070,175989
31.74695,174820
31.75322,175563
31.75947,172489
31.76572,174400
31.77198,174351
31.77823,171577
31.78448,166680
31.79075,172539
31.79700,166092
31.80325,167053
31.80952,168534
31.81577,171247
31.82202,169803
31.82828,164431
31.83453,169116
31.84078,165561
31.84705,165072
31.85330,166175
31.85955,169358
31.86582,164524
31.87207,169357
31.87832,167345
31.88457,169685
31.89083,168268
31.89708,166004
31.90333,163850
31.90960,168902
31.91585,168072
31.92210,169303
31.92837,165226
31.93462,170204
31.94087,165668
31.94713,167801
31.95338,165862
31.95963,161259
31.96590,165266
31.97215,168118
31.97840,164613
31.98467,163525
31.99092,167860
31.99717,165520
32.00343,160058
32.00968,161881
32.01593,164741
32.02220,165424
32.02845,167170
32.03470,165524
32.04097,166193
32.04722,164482
32.05347,162675
32.05973,161035
32.06598,163346
32.07223,170886
32.07850,169044
32.08475,168889
32.09100,170974
32.09725,165797
32.10352,162948
32.10977,160935
32.11602,167708
32.12228,162230
32.12853,162375
32.13478,163690
32.14105,167888
32.14730,163846
32.15355,164882
32.15982,163957
32.16607,161922
32.17232,162143
32.17858,165395
32.18483,159543
32.19108,161516
32.19735,164864
32.20360,160217
32.20985,168030
32.21612,166158
32.22237,164949
32.22862,168395
32.23488,163052
32.24113,167531
32.24738,165668
32.25365,165453
32.25990,159649
32.26615,165118
32.27242,162796
32.27867,159685
32.28492,161992
32.29118,168388
32.29743,163386
32.30368,164539
32.30995,163259
32.31620,159554
32.32245,159820
32.32870,164497
32.33497,162404
32.34122,169381
32.34747,159920
32.35373,166823
32.35998,162398
32.36623,162584
32.37250,166081
32.37875,160754
32.38500,159686
32.39127,159128
32.39752,161451
32.40377,160225
32.41003,161614
32.41628,168389
32.42253,163062
32.42880,159811
32.43505,157284
32.44130,160171
32.44757,159294
32.45382,163436
32.46007,157906
32.46633,165586
32.47258,158637
32.47883,162833
32.48510,165748
32.49135,163273
32.49760,158000
32.50387,162623
32.51012,166034
32.51637,162138
32.52263,163045
32.52888,163388
32.53513,164873
32.54138,164753
32.54765,161843
32.55390,160908
32.56015,158968
32.56642,163777
32.57267,161439
32.57892,166930
32.58518,166318
32.59143,159496
32.59768,158780
32.60395,166362
32.61020,159198
32.61645,160382
32.62272,154810
32.62897,159630
32.63522,157177
32.64148,161542
32.64773,161867
32.65398,164818
32.66025,154953
32.66650,161902
32.67275,159658
32.67902,158958
32.68527,161540
32.69152,161500
32.69778,158620
32.70403,157843
32.71028,159187
32.71655,159677
32.72280,158779
32.72905,160032
32.73532,156732
32.74157,157516
32.74782,156475
32.75408,155385
32.76033,155280
32.76658,161505
32.77283,160988
32.77910,156631
32.78535,150627
32.79160,155372
32.79787,152963
32.80412,156153
32.81037,159166
32.81663,162327
32.82288,157131
32.82913,160122
32.83540,159611
32.84165,158935
32.84790,160361
32.85417,153735
32.86042,157984
32.86667,158273
32.87293,151339
32.87918,153613
32.88543,157973
32.89170,153634
32.89795,153622
32.90420,159852
32.91047,158180
32.91672,162609
32.92297,153234
32.92923,155548
32.93548,160198
32.94173,151652
32.94800,159616
32.95425,154676
32.96050,160063
32.96677,155895
32.97302,158742
32.97927,159356
32.98552,158687
32.99178,155722
32.99803,155481
33.00428,154266
33.01055,151807
33.01680,161193
33.02305,156358
33.02932,151998
33.03557,155810
33.04182,154924
33.04808,152952
33.05433,155215
33.06058,151249
33.06685,158195
33.07310,154374
33.07935,154145
33.08562,153740
33.09187,153379
33.09812,158021
33.10438,152659
33.11063,154089
33.11688,150410
33.12315,154720
33.12940,156188
33.13565,155397
33.14192,155927
33.14817,160152
33.15442,161614
33.16068,159215
33.16693,168472
33.17318,165290
33.17945,170560
33.18570,171855
33.19195,169262
33.19820,168467
33.20447,165515
33.21072,168758
33.21697,167310
33.22323,162444
33.22948,158495
33.23573,162576
33.24200,162084
33.24825,157251
33.25450,156179
33.26077,160526
33.26702,153218
33.27327,154503
33.27953,153349
33.28578,151959
33.29203,156576
33.29830,157506
33.30455,154783
33.31080,153882
33.31707,158639
33.32332,152599
33.32957,156604
33.33583,156357
33.34208,156695
33.34833,155864
33.35460,155864
33.36085,155843
33.36710,164167
33.37337,161381
33.37962,167495
33.38587,175708
33.39213,171635
33.39838,172184
33.40463,173402
33.41090,168262
33.41715,166211
33.42340,168415
33.42965,164010
33.43592,162956
33.44217,160233
33.44842,155205
33.45468,155526
33.46093,153935
33.46718,159190
33.47345,157429
33.47970,157459
33.48595,152053
33.49222,150466
33.49847,150935
33.50472,150673
33.51098,150790
33.51723,156160
33.52348,156520
33.52975,153888
33.53600,156919
33.54225,153672
33.54852,152150
33.55477,153693
33.56102,155590
33.56728,157482
33.57353,150618
33.57978,151669
33.58605,152586
33.59230,147847
33.59855,149225
33.60482,158831
33.61107,152190
33.61732,154348
33.62358,150326
33.62983,149493
33.63608,151776
33.64233,146453
33.64860,151249
33.65485,148700
33.66110,149992
33.66737,149233
33.67362,148881
33.67987,150862
33.68613,149455
33.69238,146069
33.69863,150397
33.70490,153396
33.71115,147585
33.71740,149397
33.72367,145428
33.72992,148599
33.73617,149774
33.74243,155164
33.74868,146988
33.75493,150063
33.76120,146749
33.76745,153733
33.77370,154547
33.77997,151038
33.78622,149906
33.79247,146218
33.79873,154971
33.80498,152273
33.81123,147003
33.81750,145915
33.82375,149008
33.83000,147520
33.83627,149056
33.84252,150133
33.84877,144437
33.85502,144365
33.86128,151291
33.86753,147381
33.87378,147571
33.88005,150543
33.88630,143318
33.89255,153277
33.89882,146312
33.90507,148079
33.91132,147945
33.91758,142184
33.92383,145700
33.93008,146589
33.93635,145370
33.94260,149143
33.94885,144597
33.95512,149278
33.96137,149998
33.96762,146053
33.97388,145033
33.98013,146138
33.98638,144702
33.99265,145183
33.99890,147264
34.00515,145153
34.01142,144981
34.01767,143614
34.02392,143857
34.03018,144060
34.03643,146507
34.04268,144631
34.04895,150311
34.05520,148014
34.06145,145704
34.06772,142883
34.07397,145296
34.08022,148978
34.08647,144129
34.09273,148845
34.09898,146451
34.10523,144957
34.11150,144582
34.11775,143439
34.12400,147025
34.13027,147866
34.13652,146181
34.14277,142954
34.14903,143952
34.15528,145482
34.16153,145630
34.16780,145641
34.17405,144118
34.18030,143563
34.18657,142080
34.19282,148742
34.19907,142642
34.20533,146557
34.21158,149777
34.21783,143598
34.22410,138162
34.23035,148252
34.23660,143720
34.24287,146488
34.24912,144472
34.25537,144002
34.26163,147654
34.26788,141219
34.27413,144802
34.28040,146609
34.28665,146015
34.29290,140687
34.29915,142673
34.30542,147254
34.31167,149951
34.31792,144315
34.32418,142957
34.33043,146082
34.33668,143392
34.34295,141405
34.34920,145543
34.35545,140632
34.36172,146570
34.36797,143527
34.37422,146399
34.38048,144842
34.38673,142710
34.39298,146918
34.39925,140421
34.40550,139206
34.41175,141942
34.41802,137479
34.42427,139442
34.43052,143233
34.43678,142295
34.44303,140369
34.44928,139439
34.45555,146958
34.46180,142511
34.46805,143105
34.47432,143164
34.48057,142018
34.48682,143003
34.49308,138964
34.49933,137654
34.50558,138220
34.51185,145089
34.51810,144798
34.52435,141674
34.53060,148127
34.53687,141574
34.54312,149627
34.54937,137816
34.55563,145268
34.56188,148431
34.56813,138583
34.57440,140687
34.58065,141416
34.58690,143708
34.59317,143861
34.59942,141316
34.60567,139256
34.61193,140010
34.61818,140344
34.62443,146452
34.63070,140513
34.63695,139493
34.64320,141466
34.64947,142037
34.65572,142481
34.66197,145003
34.66823,142572
34.67448,142995
34.68073,138071
34.68700,142765
34.69325,141731
34.69950,145473
34.70577,143584
34.71202,137849
34.71827,138401
34.72453,144657
34.73078,141737
34.73703,139359
34.74328,139731
34.74955,139891
34.75580,136180
34.76205,140393
34.76832,139097
34.77457,138272
34.78082,143711
34.78708,140767
34.79333,142578
34.79958,141528
34.80585,140305
34.81210,139441
34.81835,140072
34.82462,137918
34.83087,138508
34.83712,138487
34.84338,137642
34.84963,141013
34.85588,138245
34.86215,136573
34.86840,141496
34.87465,136100
34.88092,139845
34.88717,139262
34.89342,144190
34.89968,142600
34.90593,140741
34.91218,137693
34.91845,136917
34.92470,142922
34.93095,135455
34.93722,143183
34.94347,143013
34.94972,137897
34.95597,138981
34.96223,136700
34.96848,135926
34.97473,141957
34.98100,136227
34.98725,138061
34.99350,133823
34.99977,136247
35.00602,140628
35.01227,138270
35.01853,136499
35.02478,138273
35.03103,142255
35.03730,138050
35.04355,137833
35.04980,134977
35.05607,135477
35.06232,136351
35.06857,139689
35.07483,134874
35.08108,138681
35.08733,139115
35.09360,136556
35.09985,140614
35.10610,134915
35.11237,135893
35.11862,134718
35.12487,138842
35.13113,138266
35.13738,136713
35.14363,138394
35.14990,132920
35.15615,137086
35.16240,139151
35.16867,138008
35.17492,137514
35.18117,141209
35.18742,137357
35.19368,140119
35.19993,137884
35.20618,133680
35.21245,139718
35.21870,137162
35.22495,135083
35.23122,136644
35.23747,134931
35.24372,134805
35.24998,134426
35.25623,133800
35.26248,139973
35.26875,135943
35.27500,134011
35.28125,133418
35.28752,141740
35.29377,137691
35.30002,136090
35.30628,134404
35.31253,134944
35.31878,133554
35.32505,135200
35.33130,135999
35.33755,138082
35.34382,135536
35.35007,134903
35.35632,135969
35.36258,135974
35.36883,133311
35.37508,135379
35.38135,141630
35.38760,141177
35.39385,132957
35.40012,132157
35.40637,135136
35.41262,132012
35.41887,134873
35.42513,135170
35.43138,137147
35.43763,136857
35.44390,137755
35.45015,140069
35.45640,134620
35.46267,135235
35.46892,138751
35.47517,134905
35.48143,132164
35.48768,134839
35.49393,138588
35.50020,138284
35.50645,138045
35.51270,137932
35.51897,137752
35.52522,134040
35.53147,135194
35.53773,132811
35.54398,132592
35.55023,134183
35.55650,136629
35.56275,138078
35.56900,136797
35.57527,133981
35.58152,138691
35.58777,134209
35.59403,132728
35.60028,137080
35.60653,134453
35.61280,140486
35.61905,136351
35.62530,135037
35.63155,134956
35.63782,135407
35.64407,135530
35.65032,134933
35.65658,133870
35.66283,130608
35.66908,139593
35.67535,130818
35.68160,134579
35.68785,132732
35.69412,133987
35.70037,134658
35.70662,136358
35.71288,130242
35.71913,135790
35.72538,133188
35.73165,133863
35.73790,132298
35.74415,137042
35.75042,130314
35.75667,133270
35.76292,130098
35.76918,131506
35.77543,132261
35.78168,131447
35.78795,132549
35.79420,135856
35.80045,132502
35.80672,130902
35.81297,134033
35.81922,137991
35.82548,130173
35.83173,135293
35.83798,133994
35.84423,135010
35.85050,129374
35.85675,135428
35.86300,135319
35.86927,133159
35.87552,130651
35.88177,129445
35.88803,134654
35.89428,133862
35.90053,130137
35.90680,129515
35.91305,130618
35.91930,131919
35.92557,130874
35.93182,131286
35.93807,133766
35.94433,134771
35.95058,128299
35.95683,130167
35.96310,134184
35.96935,130959
35.97560,131419
35.98187,130869
35.98812,130920
35.99437,129081
36.00063,132003
36.00688,136007
36.01313,132421
36.01940,129481
36.02565,131184
36.03190,128600
36.03817,130036
36.04442,130193
36.05067,129391
36.05693,131560
36.06318,131195
36.06943,129296
36.07568,130671
36.08195,131199
36.08820,133462
36.09445,129013
36.10072,131931
36.10697,132190
36.11322,136950
36.11948,126596
36.12573,129236
36.13198,128434
36.13825,129231
36.14450,129903
36.15075,132254
36.15702,130541
36.16327,130569
36.16952,131200
36.17578,128431
36.18203,133864
36.18828,128778
36.19455,131954
36.20080,127875
36.20705,126396
36.21332,128959
36.21957,130565
36.22582,135138
36.23208,135794
36.23833,133491
36.24458,133125
36.25085,134506
36.25710,136323
36.26335,143984
36.26962,147003
36.27587,153444
36.28212,166031
36.28837,162119
36.29463,173316
36.30088,183775
36.30713,195836
36.31340,205835
36.31965,222225
36.32590,229658
36.33217,230358
36.33842,238608
36.34467,250757
36.35093,251844
36.35718,246653
36.36343,244393
36.36970,234134
36.37595,224781
36.38220,218789
36.38847,206729
36.39472,196539
36.40097,183191
36.40723,177115
36.41348,172730
36.41973,164451
36.42600,156866
36.43225,154013
36.43850,151367
36.44477,151344
36.45102,151088
36.45727,147491
36.46353,145701
36.46978,141834
36.47603,137626
36.48230,141504
36.48855,144183
36.49480,137953
36.50105,136778
36.50732,140345
36.51357,137266
36.51982,143900
36.52608,135957
36.53233,137880
36.53858,136755
36.54485,139653
36.55110,137720
36.55735,137716
36.56362,134485
36.56987,135468
36.57612,138069
36.58238,135116
36.58863,139612
36.59488,130408
36.60115,134906
36.60740,135474
36.61365,133422
36.61992,134067
36.62617,131942
36.63242,135709
36.63868,132420
36.64493,133858
36.65118,136977
36.65745,135101
36.66370,135670
36.66995,131815
36.67622,132836
36.68247,135031
36.68872,132033
36.69498,131198
36.70123,130973
36.70748,134789
36.71375,134411
36.72000,130585
36.72625,129213
36.73250,130023
36.73877,130304
36.74502,131423
36.75127,132444
36.75753,130158
36.76378,134774
36.77003,133868
36.77630,129556
36.78255,130849
36.78880,130482
36.79507,131115
36.80132,126398
36.80757,126657
36.81383,132967
36.82008,127900
36.82633,125568
36.83260,125676
36.83885,127093
36.84510,127183
36.85137,130661
36.85762,131089
36.86387,133964
36.87013,128534
36.87638,129285
36.88263,126282
36.88890,126072
36.89515,126621
36.90140,125863
36.90767,133217
36.91392,131651
36.92017,127057
36.92643,127595
36.93268,126873
36.93893,132192
36.94518,130724
36.95145,128100
36.95770,125830
36.96395,127433
36.97022,132024
36.97647,127712
36.98272,126423
36.98898,127360
36.99523,124072
37.00148,130888
37.00775,127146
37.01400,126407
37.02025,129685
37.02652,124531
37.03277,129406
37.03902,127690
37.04528,126887
37.05153,128140
37.05778,131141
37.06405,128019
37.07030,128175
37.07655,125789
37.08282,125414
37.08907,127553
37.09532,129346
37.10158,128213
37.10783,126104
37.11408,129324
37.12035,130187
37.12660,131768
37.13285,124263
37.13912,127971
37.14537,125039
37.15162,129287
37.15787,123712
37.16413,125719
37.17038,130035
37.17663,124631
37.18290,127555
37.18915,124978
37.19540,126770
37.20167,125535
37.20792,125410
37.21417,128260
37.22043,125462
37.22668,122520
37.23293,123298
37.23920,124873
37.24545,122853
37.25170,123549
37.25797,123725
37.26422,125424
37.27047,123888
37.27673,128161
37.28298,123263
37.28923,124034
37.29550,127579
37.30175,123911
37.30800,122162
37.31427,127009
37.32052,125091
37.32677,125183
37.33303,123373
37.33928,126506
37.34553,123613
37.35180,121816
37.35805,124956
37.36430,122372
37.37057,123654
37.37682,124348
37.38307,123661
37.38932,126784
37.39558,123688
37.40183,126042
37.40808,121987
37.41435,121896
37.42060,124071
37.42685,126141
37.43312,124216
37.43937,122123
37.44562,128904
37.45188,123421
37.45813,120838
37.46438,122616
37.47065,124486
37.47690,123569
37.48315,126677
37.48942,124724
