D:\MassHunter\GCMS\1\data\metastasis_lineages_3replicates_3runs_10302020\P_plate2_run1_10302020.D Fri Oct 30 17:53:31 2020
Start of data points
5.99353,188583
5.99978,197746
6.00605,215461
6.01230,218310
6.01855,193947
6.02482,184354
6.03107,194602
6.03732,200576
6.04358,203860
6.04983,200706
6.05608,223412
6.06235,218324
6.06860,202768
6.07485,183330
6.08112,180637
6.08737,197397
6.09362,335920
6.09988,675356
6.10613,969006
6.11238,867445
6.11865,525515
6.12490,290500
6.13115,213656
6.13742,215797
6.14367,259430
6.14992,342820
6.15617,517507
6.16243,794554
6.16868,966343
6.17493,777478
6.18120,480748
6.18745,283523
6.19370,217287
6.19997,197833
6.20622,188769
6.21247,166957
6.21873,150900
6.22498,147145
6.23123,142602
6.23750,145662
6.24375,139554
6.25000,132746
6.25627,133340
6.26252,136036
6.26877,143466
6.27503,147521
6.28128,142946
6.28753,153183
6.29380,188399
6.30005,293876
6.30630,574083
6.31257,1476487
6.31882,3946874
6.32507,8658775
6.33133,1.38462E+07
6.33758,1.476581E+07
6.34383,8704935
6.35010,2400546
6.35635,477339
6.36260,211273
6.36885,188328
6.37512,185552
6.38137,176008
6.38762,192437
6.39388,246656
6.40013,373558
6.40638,492562
6.41265,493710
6.41890,456257
6.42515,556395
6.43142,738630
6.43767,786918
6.44392,773152
6.45018,1324101
6.45643,3412824
6.46268,7879853
6.46895,1.481171E+07
6.47520,2.296493E+07
6.48145,3.057782E+07
6.48772,3.691212E+07
6.49397,4.114699E+07
6.50022,4.382302E+07
6.50648,4.428466E+07
6.51273,4.424998E+07
6.51898,4.354381E+07
6.52525,4.280205E+07
6.53150,4.22223E+07
6.53775,6867378
6.54402,906136
6.55027,834665
6.55652,984696
6.56278,1260925
6.56903,1611781
6.57528,1827613
6.58155,1525474
6.58780,893185
6.59405,439057
6.60030,290467
6.60657,259559
6.61282,238143
6.61907,226052
6.62533,229774
6.63158,222323
6.63783,229101
6.64410,236409
6.65035,231911
6.65660,254842
6.66287,319466
6.66912,368708
6.67537,333186
6.68163,272767
6.68788,239405
6.69413,228541
6.70040,220330
6.70665,227622
6.71290,241454
6.71917,253604
6.72542,262670
6.73167,265755
6.73793,278514
6.74418,278124
6.75043,287459
6.75670,290948
6.76295,288868
6.76920,288564
6.77547,293927
6.78172,294559
6.78797,314614
6.79423,331952
6.80048,362211
6.80673,375760
6.81298,377601
6.81925,360418
6.82550,361681
6.83175,369307
6.83802,391399
6.84427,412832
6.85052,415473
6.85678,390751
6.86303,416888
6.86928,573883
6.87555,854409
6.88180,1040110
6.88805,913278
6.89432,650225
6.90057,471007
6.90682,402908
6.91308,378854
6.91933,354410
6.92558,343282
6.93185,335955
6.93810,335107
6.94435,329301
6.95062,316831
6.95687,303209
6.96312,291618
6.96938,281670
6.97563,278101
6.98188,274253
6.98815,274668
6.99440,251901
7.00065,245413
7.00692,241658
7.01317,269604
7.01942,363569
7.02568,821195
7.03193,2268075
7.03818,5039825
7.04443,7583614
7.05070,7313263
7.05695,4349193
7.06320,1574771
7.06947,461757
7.07572,221851
7.08197,169294
7.08823,149349
7.09448,143316
7.10073,138848
7.10700,137621
7.11325,133223
7.11950,121357
7.12577,123691
7.13202,158307
7.13827,245958
7.14453,355401
7.15078,386744
7.15703,294360
7.16330,186140
7.16955,133084
7.17580,117172
7.18207,113842
7.18832,132305
7.19457,175064
7.20083,210346
7.20708,205097
7.21333,162460
7.21960,124402
7.22585,118447
7.23210,129458
7.23837,163120
7.24462,275112
7.25087,562123
7.25712,976619
7.26338,1144114
7.26963,911762
7.27588,512292
7.28215,262501
7.28840,168518
7.29465,138424
7.30092,134905
7.30717,128107
7.31342,120110
7.31968,111589
7.32593,106802
7.33218,100431
7.33845,103972
7.34470,94370
7.35095,97863
7.35722,91357
7.36347,91937
7.36972,95285
7.37598,97835
7.38223,116760
7.38848,132265
7.39475,128121
7.40100,119262
7.40725,128044
7.41352,169521
7.41977,229883
7.42602,264242
7.43228,262392
7.43853,220299
7.44478,175949
7.45105,149834
7.45730,160850
7.46355,198459
7.46980,202000
7.47607,186965
7.48232,166033
7.48857,176017
7.49483,207103
7.50108,262235
7.50733,262552
7.51360,218800
7.51985,149819
7.52610,115242
7.53237,102967
7.53862,117900
7.54487,219281
7.55113,799727
7.55738,2875969
7.56363,7582670
7.56990,1.443933E+07
7.57615,2.095851E+07
7.58240,2.338234E+07
7.58867,1.738165E+07
7.59492,6999739
7.60117,2023234
7.60743,995366
7.61368,754859
7.61993,639471
7.62620,566213
7.63245,465986
7.63870,333804
7.64497,235368
7.65122,180261
7.65747,163993
7.66373,176833
7.66998,240809
7.67623,339412
7.68250,410819
7.68875,368606
7.69500,260248
7.70125,193599
7.70752,195592
7.71377,251788
7.72002,301383
7.72628,297289
7.73253,259090
7.73878,217650
7.74505,180694
7.75130,156205
7.75755,138858
7.76382,126158
7.77007,119534
7.77632,116112
7.78258,130998
7.78883,129530
7.79508,128822
7.80135,126681
7.80760,123288
7.81385,140304
7.82012,201312
7.82637,278626
7.83262,328514
7.83888,294177
7.84513,229836
7.85138,210235
7.85765,254240
7.86390,312216
7.87015,320916
7.87642,264950
7.88267,199187
7.88892,171277
7.89518,156117
7.90143,161100
7.90768,179230
7.91393,192159
7.92020,192926
7.92645,183076
7.93270,173508
7.93897,175818
7.94522,226940
7.95147,296220
7.95773,337011
7.96398,294871
7.97023,244819
7.97650,227981
7.98275,266336
7.98900,410187
7.99527,613263
8.00152,734235
8.00777,873837
8.01403,1226483
8.02028,1708965
8.02653,1792414
8.03280,1360890
8.03905,841445
8.04530,644331
8.05157,711938
8.05782,782253
8.06407,685804
8.07033,454795
8.07658,307636
8.08283,311896
8.08910,430636
8.09535,564208
8.10160,682519
8.10787,809266
8.11412,996292
8.12037,1074235
8.12662,821753
8.13288,465079
8.13913,252157
8.14538,171345
8.15165,143475
8.15790,137002
8.16415,133794
8.17042,127536
8.17667,120528
8.18292,110965
8.18918,114019
8.19543,108794
8.20168,103626
8.20795,103621
8.21420,120614
8.22045,151320
8.22672,244457
8.23297,366787
8.23922,444847
8.24548,362229
8.25173,251731
8.25798,182455
8.26425,155323
8.27050,149406
8.27675,151931
8.28302,171807
8.28927,196580
8.29552,185400
8.30178,148163
8.30803,121328
8.31428,101011
8.32055,94254
8.32680,95951
8.33305,102670
8.33932,105481
8.34557,100913
8.35182,104524
8.35807,100357
8.36433,103464
8.37058,102088
8.37683,97763
8.38310,94759
8.38935,104370
8.39560,155038
8.40187,281809
8.40812,451348
8.41437,517701
8.42063,400222
8.42688,236952
8.43313,167941
8.43940,173532
8.44565,236527
8.45190,312725
8.45817,338739
8.46442,292841
8.47067,202756
8.47693,142804
8.48318,123827
8.48943,114797
8.49570,118834
8.50195,131193
8.50820,143968
8.51447,132911
8.52072,118793
8.52697,99568
8.53323,98786
8.53948,94304
8.54573,98020
8.55200,113264
8.55825,161825
8.56450,259539
8.57075,414701
8.57702,613755
8.58327,961063
8.58952,1403929
8.59578,1551969
8.60203,1367640
8.60828,1645317
8.61455,3791845
8.62080,8599923
8.62705,1.374034E+07
8.63332,1.51304E+07
8.63957,1.038279E+07
8.64582,4067345
8.65208,1047992
8.65833,308968
8.66458,205114
8.67085,193534
8.67710,196442
8.68335,189508
8.68962,187860
8.69587,190498
8.70212,192864
8.70838,195982
8.71463,207153
8.72088,195867
8.72715,180033
8.73340,160838
8.73965,160154
8.74592,163322
8.75217,163070
8.75842,145410
8.76468,112662
8.77093,106475
8.77718,102701
8.78345,107476
8.78970,103568
8.79595,92600
8.80220,86897
8.80847,90465
8.81472,86159
8.82097,89803
8.82723,124166
8.83348,295282
8.83973,867142
8.84600,2415032
8.85225,5130564
8.85850,7955719
8.86477,8703221
8.87102,7104166
8.87727,4785028
8.88353,3963045
8.88978,4257067
8.89603,4643795
8.90230,4263489
8.90855,2460478
8.91480,1048205
8.92107,478401
8.92732,270878
8.93357,178400
8.93983,141612
8.94608,137401
8.95233,152394
8.95860,187330
8.96485,224008
8.97110,244942
8.97737,263305
8.98362,284145
8.98987,320898
8.99613,421564
9.00238,597096
9.00863,731682
9.01488,723476
9.02115,570314
9.02740,381548
9.03365,329478
9.03992,440582
9.04617,580493
9.05242,591633
9.05868,433354
9.06493,269147
9.07118,181800
9.07745,148866
9.08370,138727
9.08995,145623
9.09622,158067
9.10247,160314
9.10872,152697
9.11498,132501
9.12123,116644
9.12748,110054
9.13375,122750
9.14000,142101
9.14625,152888
9.15252,170898
9.15877,218799
9.16502,265781
9.17128,285180
9.17753,277505
9.18378,296166
9.19005,347190
9.19630,383633
9.20255,332012
9.20882,247234
9.21507,170462
9.22132,136457
9.22758,123687
9.23383,131772
9.24008,168913
9.24633,218516
9.25260,237365
9.25885,208695
9.26510,159561
9.27137,117157
9.27762,103573
9.28387,106386
9.29013,126579
9.29638,176371
9.30263,238545
9.30890,296396
9.31515,323228
9.32140,339611
9.32767,339385
9.33392,337561
9.34017,461789
9.34643,775058
9.35268,1024995
9.35893,1009817
9.36520,708848
9.37145,461587
9.37770,693551
9.38397,2219291
9.39022,5998872
9.39647,1.124455E+07
9.40273,1.447562E+07
9.40898,1.249822E+07
9.41523,6557520
9.42150,2048365
9.42775,747386
9.43400,1205334
9.44027,3846540
9.44652,1.049017E+07
9.45277,2.00405E+07
9.45902,2.80271E+07
9.46528,2.933057E+07
9.47153,2.259241E+07
9.47778,1.07994E+07
9.48405,3144088
9.49030,844322
9.49655,353252
9.50282,236005
9.50907,197646
9.51532,185145
9.52158,178246
9.52783,173080
9.53408,167281
9.54035,158882
9.54660,159566
9.55285,154516
9.55912,155474
9.56537,170904
9.57162,192716
9.57788,203296
9.58413,197803
9.59038,172645
9.59665,154173
9.60290,160218
9.60915,179013
9.61542,217626
9.62167,224879
9.62792,193639
9.63418,155239
9.64043,135774
9.64668,131672
9.65295,139060
9.65920,140119
9.66545,130760
9.67172,138146
9.67797,317015
9.68422,1167039
9.69047,3855804
9.69673,8649021
9.70298,1.304362E+07
9.70923,1.317173E+07
9.71550,8493873
9.72175,3779353
9.72800,2414707
9.73427,3651151
9.74052,5214863
9.74677,4987940
9.75303,3140174
9.75928,1348411
9.76553,476947
9.77180,230364
9.77805,168367
9.78430,142139
9.79057,129250
9.79682,115561
9.80307,111834
9.80933,108615
9.81558,111538
9.82183,113572
9.82810,115121
9.83435,122345
9.84060,149110
9.84687,201900
9.85312,389214
9.85937,1179551
9.86563,3570750
9.87188,7661032
9.87813,1.226592E+07
9.88440,1.312398E+07
9.89065,8806633
9.89690,3619944
9.90315,1463611
9.90942,1375941
9.91567,1595887
9.92192,1276041
9.92818,697957
9.93443,324628
9.94068,186930
9.94695,155812
9.95320,175290
9.95945,240734
9.96572,410406
9.97197,669153
9.97822,864294
9.98448,908343
9.99073,813809
9.99698,701608
10.00325,533421
10.00950,372150
10.01575,257907
10.02202,211414
10.02827,189165
10.03452,168619
10.04078,148786
10.04703,143585
10.05328,144573
10.05955,135752
10.06580,123036
10.07205,114184
10.07832,114635
10.08457,126077
10.09082,139462
10.09708,155963
10.10333,172452
10.10958,189566
10.11583,214564
10.12210,231056
10.12835,208663
10.13460,166480
10.14087,133347
10.14712,121522
10.15337,113666
10.15963,113602
10.16588,115111
10.17213,117089
10.17840,131428
10.18465,157263
10.19090,167657
10.19717,157260
10.20342,137883
10.20967,126762
10.21593,151324
10.22218,262267
10.22843,462783
10.23470,646033
10.24095,648400
10.24720,505112
10.25347,360076
10.25972,266960
10.26597,218184
10.27223,192616
10.27848,175699
10.28473,178564
10.29100,236988
10.29725,319275
10.30350,310708
10.30977,243888
10.31602,181211
10.32227,166060
10.32853,223274
10.33478,375188
10.34103,522046
10.34728,511890
10.35355,369497
10.35980,228859
10.36605,165217
10.37232,148316
10.37857,130055
10.38482,119296
10.39108,114421
10.39733,107412
10.40358,103529
10.40985,97322
10.41610,98656
10.42235,108708
10.42862,117385
10.43487,125019
10.44112,124701
10.44738,119729
10.45363,131671
10.45988,136960
10.46615,134885
10.47240,137808
10.47865,161238
10.48492,219747
10.49117,291385
10.49742,296605
10.50368,238623
10.50993,176286
10.51618,132401
10.52245,118087
10.52870,125098
10.53495,156545
10.54122,204661
10.54747,222297
10.55372,199714
10.55997,165590
10.56623,159123
10.57248,179594
10.57873,208343
10.58500,240047
10.59125,234390
10.59750,228516
10.60377,335488
10.61002,945927
10.61627,2820420
10.62253,6388778
10.62878,1.016418E+07
10.63503,1.086929E+07
10.64130,7675956
10.64755,3282230
10.65380,942194
10.66007,296162
10.66632,177887
10.67257,167251
10.67883,178992
10.68508,178577
10.69133,166716
10.69760,142998
10.70385,122633
10.71010,112395
10.71637,113634
10.72262,123787
10.72887,137499
10.73513,148984
10.74138,154028
10.74763,151844
10.75390,147136
10.76015,141979
10.76640,141758
10.77265,153833
10.77892,159949
10.78517,166136
10.79142,165497
10.79768,153248
10.80393,158376
10.81018,205865
10.81645,308084
10.82270,403631
10.82895,409952
10.83522,310004
10.84147,199601
10.84772,150105
10.85398,143129
10.86023,152386
10.86648,160598
10.87275,161525
10.87900,160709
10.88525,156979
10.89152,152335
10.89777,163054
10.90402,180192
10.91028,202030
10.91653,201271
10.92278,191780
10.92905,188950
10.93530,180181
10.94155,168523
10.94782,139930
10.95407,125467
10.96032,149582
10.96658,315889
10.97283,1035673
10.97908,3128204
10.98535,7643364
10.99160,1.332119E+07
10.99785,1.784329E+07
11.00410,1.652072E+07
11.01037,1.019395E+07
11.01662,3769070
11.02287,972525
11.02913,307288
11.03538,215987
11.04163,222827
11.04790,239545
11.05415,252392
11.06040,273336
11.06667,285246
11.07292,251652
11.07917,198099
11.08543,148122
11.09168,134289
11.09793,143463
11.10420,166497
11.11045,174789
11.11670,176270
11.12297,174465
11.12922,176244
11.13547,179665
11.14173,187215
11.14798,194138
11.15423,221580
11.16050,298288
11.16675,429553
11.17300,522293
11.17927,485585
11.18552,357870
11.19177,224387
11.19803,163105
11.20428,151400
11.21053,161276
11.21678,193818
11.22305,212915
11.22930,223987
11.23555,203253
11.24182,183787
11.24807,188787
11.25432,216373
11.26058,227218
11.26683,213277
11.27308,210370
11.27935,215900
11.28560,236277
11.29185,235067
11.29812,208600
11.30437,174329
11.31062,157665
11.31688,169500
11.32313,253934
11.32938,394572
11.33565,507529
11.34190,465074
11.34815,329274
11.35442,199182
11.36067,134136
11.36692,124367
11.37318,120730
11.37943,120114
11.38568,122441
11.39195,115367
11.39820,119527
11.40445,127738
11.41072,143266
11.41697,142003
11.42322,146618
11.42948,143905
11.43573,166346
11.44198,237487
11.44823,373044
11.45450,511852
11.46075,541936
11.46700,406219
11.47327,276399
11.47952,208684
11.48577,209908
11.49203,206570
11.49828,194275
11.50453,160748
11.51080,145386
11.51705,130129
11.52330,127319
11.52957,125899
11.53582,126288
11.54207,128275
11.54833,125522
11.55458,127620
11.56083,117322
11.56710,113242
11.57335,106783
11.57960,114148
11.58587,116250
11.59212,123671
11.59837,134271
11.60463,136167
11.61088,136054
11.61713,126402
11.62340,121161
11.62965,122459
11.63590,120323
11.64217,125911
11.64842,136286
11.65467,149832
11.66092,162530
11.66718,166881
11.67343,154879
11.67968,145442
11.68595,139219
11.69220,140113
11.69845,149944
11.70472,182425
11.71097,261744
11.71722,391552
11.72348,500677
11.72973,494040
11.73598,375156
11.74225,255957
11.74850,194889
11.75475,159292
11.76102,146143
11.76727,153300
11.77352,171367
11.77978,194714
11.78603,207024
11.79228,218486
11.79855,215065
11.80480,215859
11.81105,206756
11.81732,189451
11.82357,186250
11.82982,216170
11.83608,322353
11.84233,492115
11.84858,593535
11.85485,537277
11.86110,399375
11.86735,263455
11.87362,195373
11.87987,184918
11.88612,234238
11.89237,319022
11.89863,400712
11.90488,421961
11.91113,375775
11.91740,295088
11.92365,231339
11.92990,194262
11.93617,201751
11.94242,272637
11.94867,534264
11.95493,1211342
11.96118,2606942
11.96743,4502233
11.97370,5560173
11.97995,4802658
11.98620,2728502
11.99247,1013676
11.99872,430657
12.00497,319066
12.01123,326001
12.01748,319878
12.02373,307928
12.03000,289493
12.03625,313766
12.04250,387853
12.04877,541848
12.05502,703654
12.06127,778474
12.06753,748776
12.07378,600635
12.08003,437175
12.08630,365280
12.09255,356024
12.09880,371475
12.10505,357856
12.11132,324626
12.11757,269157
12.12382,221561
12.13008,195158
12.13633,186952
12.14258,180209
12.14885,177739
12.15510,169341
12.16135,169368
12.16762,167512
12.17387,170024
12.18012,176192
12.18638,181275
12.19263,202183
12.19888,246800
12.20515,318185
12.21140,403518
12.21765,490449
12.22392,552956
12.23017,507345
12.23642,436209
12.24268,380317
12.24893,427917
12.25518,633205
12.26145,1033022
12.26770,1686630
12.27395,2417528
12.28022,2983300
12.28647,2753816
12.29272,1871867
12.29898,943087
12.30523,387892
12.31148,214162
12.31775,156514
12.32400,141520
12.33025,144948
12.33650,157226
12.34277,184283
12.34902,213782
12.35527,243714
12.36153,259210
12.36778,244770
12.37403,230477
12.38030,229832
12.38655,260953
12.39280,335041
12.39907,359152
12.40532,316533
12.41157,247963
12.41783,205794
12.42408,193716
12.43033,202283
12.43660,241255
12.44285,271625
12.44910,267305
12.45537,246379
12.46162,222500
12.46787,225433
12.47413,277163
12.48038,447693
12.48663,814231
12.49290,1462359
12.49915,2075332
12.50540,2245280
12.51167,1700192
12.51792,961748
12.52417,453253
12.53043,256832
12.53668,240732
12.54293,296044
12.54918,368355
12.55545,395303
12.56170,345353
12.56795,280676
12.57422,336403
12.58047,611725
12.58672,1152524
12.59298,1904155
12.59923,2390657
12.60548,2222521
12.61175,1792240
12.61800,1728063
12.62425,2213211
12.63052,3106598
12.63677,4303020
12.64302,5748116
12.64928,8078754
12.65553,1.178734E+07
12.66178,1.681901E+07
12.66805,2.19788E+07
12.67430,2.697682E+07
12.68055,2.870465E+07
12.68682,2.68513E+07
12.69307,1.856664E+07
12.69932,6835400
12.70558,1533558
12.71183,600719
12.71808,639764
12.72435,822914
12.73060,924034
12.73685,909043
12.74312,883108
12.74937,863815
12.75562,753238
12.76187,599298
12.76813,476669
12.77438,385338
12.78063,345125
12.78690,335411
12.79315,350510
12.79940,362980
12.80567,350517
12.81192,310211
12.81817,272229
12.82443,268596
12.83068,287049
12.83693,303837
12.84320,292809
12.84945,261709
12.85570,235769
12.86197,230310
12.86822,222661
12.87447,221925
12.88073,241185
12.88698,301379
12.89323,478910
12.89950,713798
12.90575,856490
12.91200,772036
12.91827,577230
12.92452,395014
12.93077,299696
12.93703,242427
12.94328,209334
12.94953,197195
12.95580,192060
12.96205,184638
12.96830,185144
12.97457,178439
12.98082,176126
12.98707,186080
12.99332,201818
12.99958,220888
13.00583,233768
13.01208,245848
13.01835,266781
13.02460,320311
13.03085,458777
13.03712,641685
13.04337,780470
13.04962,717828
13.05588,514972
13.06213,359736
13.06838,360963
13.07465,656994
13.08090,1397777
13.08715,2509117
13.09342,3359394
13.09967,3194259
13.10592,2066159
13.11218,1129893
13.11843,631405
13.12468,443612
13.13095,335520
13.13720,288020
13.14345,277051
13.14972,276994
13.15597,262533
13.16222,235284
13.16848,222816
13.17473,208127
13.18098,196799
13.18725,182778
13.19350,177551
13.19975,172942
13.20600,166365
13.21227,173239
13.21852,176686
13.22477,189424
13.23103,205194
13.23728,231499
13.24353,252557
13.24980,257006
13.25605,254370
13.26230,256678
13.26857,290470
13.27482,299411
13.28107,279558
13.28733,274779
13.29358,330858
13.29983,487086
13.30610,799460
13.31235,1204278
13.31860,1512385
13.32487,1339048
13.33112,891969
13.33737,460066
13.34363,276124
13.34988,245035
13.35613,254770
13.36240,255081
13.36865,241935
13.37490,224564
13.38117,201044
13.38742,193463
13.39367,182162
13.39993,179048
13.40618,174158
13.41243,183564
13.41868,193253
13.42495,216468
13.43120,245090
13.43745,283586
13.44372,319371
13.44997,321316
13.45622,301683
13.46248,268742
13.46873,229414
13.47498,215271
13.48125,213760
13.48750,214004
13.49375,220042
13.50002,219802
13.50627,214185
13.51252,213543
13.51878,217917
13.52503,227742
13.53128,235242
13.53755,242620
13.54380,260544
13.55005,311678
13.55632,411825
13.56257,526710
13.56882,564305
13.57508,507747
13.58133,466321
13.58758,493400
13.59385,661431
13.60010,1010979
13.60635,1523815
13.61262,1870815
13.61887,1741855
13.62512,1305366
13.63138,867123
13.63763,577190
13.64388,422328
13.65013,347878
13.65640,333091
13.66265,339385
13.66890,330942
13.67517,312024
13.68142,307526
13.68767,333308
13.69393,395959
13.70018,455766
13.70643,455601
13.71270,393933
13.71895,322366
13.72520,283950
13.73147,268813
13.73772,263753
13.74397,267748
13.75023,300773
13.75648,375414
13.76273,594184
13.76900,892221
13.77525,1097590
13.78150,1028141
13.78777,697992
13.79402,461680
13.80027,456822
13.80653,736749
13.81278,1527091
13.81903,3107757
13.82530,5701401
13.83155,9490432
13.83780,1.594769E+07
13.84407,2.116598E+07
13.85032,2.151442E+07
13.85657,1.440844E+07
13.86282,5063168
13.86908,1134932
13.87533,368265
13.88158,274724
13.88785,359798
13.89410,666419
13.90035,1403682
13.90662,2915974
13.91287,5400451
13.91912,8185116
13.92538,9313076
13.93163,7414658
13.93788,3599406
13.94415,1236824
13.95040,386376
13.95665,200775
13.96292,177397
13.96917,166878
13.97542,163321
13.98168,162799
13.98793,170858
13.99418,168511
14.00045,178258
14.00670,193848
14.01295,219137
14.01922,254447
14.02547,250719
14.03172,216511
14.03798,169760
14.04423,149973
14.05048,142835
14.05675,148125
14.06300,159704
14.06925,178322
14.07552,198171
14.08177,206080
14.08802,192887
14.09427,165591
14.10053,142598
14.10678,130758
14.11303,127925
14.11930,131618
14.12555,139121
14.13180,148100
14.13807,153068
14.14432,149072
14.15057,140465
14.15683,142016
14.16308,141710
14.16933,138911
14.17560,134687
14.18185,123334
14.18810,120394
14.19437,117582
14.20062,127966
14.20687,140114
14.21313,168887
14.21938,222864
14.22563,301755
14.23190,385281
14.23815,438617
14.24440,423716
14.25067,354338
14.25692,285593
14.26317,304911
14.26943,491934
14.27568,893011
14.28193,1392394
14.28820,1536195
14.29445,1140606
14.30070,602381
14.30695,333332
14.31322,232735
14.31947,230123
14.32572,281845
14.33198,350945
14.33823,370336
14.34448,336415
14.35075,275954
14.35700,210495
14.36325,178374
14.36952,164690
14.37577,166646
14.38202,169799
14.38828,180078
14.39453,204916
14.40078,268176
14.40705,461353
14.41330,1021904
14.41955,2236947
14.42582,3887886
14.43207,5250914
14.43832,5057334
14.44458,3637413
14.45083,2403556
14.45708,1776987
14.46335,1358040
14.46960,1158650
14.47585,1089774
14.48212,1102325
14.48837,1102740
14.49462,920262
14.50088,647854
14.50713,433651
14.51338,277299
14.51965,213924
14.52590,203270
14.53215,204852
14.53840,210153
14.54467,201529
14.55092,190495
14.55717,196388
14.56343,200512
14.56968,205518
14.57593,213132
14.58220,218899
14.58845,209829
14.59470,187733
14.60097,174862
14.60722,178298
14.61347,187483
14.61973,190193
14.62598,192228
14.63223,196871
14.63850,229392
14.64475,296284
14.65100,419643
14.65727,499934
14.66352,493767
14.66977,407379
14.67603,317108
14.68228,266304
14.68853,253994
14.69480,272753
14.70105,311346
14.70730,371513
14.71357,403135
14.71982,410695
14.72607,491236
14.73233,737163
14.73858,1169473
14.74483,1664753
14.75108,2038817
14.75735,2179185
14.76360,2442271
14.76985,2667916
14.77612,2321491
14.78237,1410684
14.78862,675326
14.79488,441223
14.80113,687439
14.80738,1560231
14.81365,2995102
14.81990,4143581
14.82615,3773640
14.83242,2297854
14.83867,937820
14.84492,379748
14.85118,224455
14.85743,224682
14.86368,289928
14.86995,383802
14.87620,426376
14.88245,399251
14.88872,317299
14.89497,254038
14.90122,226497
14.90748,244719
14.91373,348871
14.91998,547355
14.92625,741643
14.93250,810566
14.93875,745959
14.94502,601764
14.95127,461642
14.95752,410164
14.96377,533119
14.97003,974737
14.97628,2054633
14.98253,3720447
14.98880,5037617
14.99505,4610399
15.00130,2958286
15.00757,1263697
15.01382,496832
15.02007,282136
15.02633,228803
15.03258,214086
15.03883,222018
15.04510,243156
15.05135,272416
15.05760,295856
15.06387,293051
15.07012,277596
15.07637,257805
15.08263,237230
15.08888,235728
15.09513,251706
15.10140,286140
15.10765,317072
15.11390,333304
15.12017,393070
15.12642,472181
15.13267,569648
15.13893,688183
15.14518,787020
15.15143,856126
15.15770,933608
15.16395,1185497
15.17020,1992312
15.17647,3219319
15.18272,4116661
15.18897,3777234
15.19522,2365677
15.20148,1234412
15.20773,607005
15.21398,379143
15.22025,284790
15.22650,227181
15.23275,193247
15.23902,190895
15.24527,198452
15.25152,208138
15.25778,231027
15.26403,246142
15.27028,245433
15.27655,220382
15.28280,192950
15.28905,175083
15.29532,169830
15.30157,171014
15.30782,179898
15.31408,188535
15.32033,208522
15.32658,257382
15.33285,291498
15.33910,282040
15.34535,259847
15.35162,212172
15.35787,200968
15.36412,219746
15.37038,243268
15.37663,246850
15.38288,229229
15.38915,207006
15.39540,196504
15.40165,183905
15.40790,169472
15.41417,159720
15.42042,166471
15.42667,208083
15.43293,287026
15.43918,389138
15.44543,497016
15.45170,610765
15.45795,759716
15.46420,815623
15.47047,686746
15.47672,480471
15.48297,321070
15.48923,226471
15.49548,189824
15.50173,193945
15.50800,220697
15.51425,284950
15.52050,469794
15.52677,1043074
15.53302,2276759
15.53927,4011955
15.54553,5852573
15.55178,7990373
15.55803,1.07209E+07
15.56430,1.351241E+07
15.57055,1.396989E+07
15.57680,9415268
15.58307,3447233
15.58932,1003618
15.59557,478135
15.60183,376399
15.60808,361041
15.61433,371695
15.62060,384487
15.62685,378577
15.63310,346707
15.63935,323368
15.64562,299735
15.65187,271047
15.65812,244631
15.66438,234659
15.67063,228535
15.67688,234289
15.68315,244614
15.68940,256785
15.69565,254099
15.70192,235963
15.70817,226307
15.71442,213971
15.72068,187176
15.72693,171125
15.73318,170849
15.73945,175191
15.74570,183646
15.75195,201549
15.75822,207628
15.76447,214239
15.77072,188192
15.77698,160681
15.78323,144990
15.78948,137487
15.79575,139271
15.80200,141685
15.80825,143923
15.81452,148954
15.82077,156259
15.82702,168783
15.83328,197898
15.83953,277370
15.84578,415830
15.85203,574283
15.85830,659822
15.86455,543626
15.87080,359227
15.87707,241313
15.88332,197385
15.88957,187909
15.89583,182559
15.90208,177687
15.90833,164623
15.91460,154762
15.92085,152556
15.92710,150581
15.93337,153987
15.93962,157186
15.94587,151923
15.95213,155256
15.95838,160923
15.96463,178196
15.97090,201326
15.97715,212437
15.98340,198988
15.98967,173838
15.99592,143714
16.00217,129771
16.00843,149071
16.01468,207984
16.02093,319162
16.02720,471793
16.03345,571371
16.03970,592381
16.04597,569653
16.05222,557728
16.05847,538265
16.06472,499588
16.07098,418311
16.07723,396735
16.08348,517135
16.08975,655037
16.09600,786614
16.10225,824187
16.10852,849288
16.11477,1056966
16.12102,1651704
16.12728,2725153
16.13353,3635725
16.13978,3512135
16.14605,2292651
16.15230,1116215
16.15855,526833
16.16482,328136
16.17107,281743
16.17732,270381
16.18358,255522
16.18983,259473
16.19608,281427
16.20235,317050
16.20860,317399
16.21485,275622
16.22112,226868
16.22737,253195
16.23362,386397
16.23988,628681
16.24613,811206
16.25238,743544
16.25865,525379
16.26490,329887
16.27115,235663
16.27742,196940
16.28367,180516
16.28992,172937
16.29617,185889
16.30243,237165
16.30868,349012
16.31493,456438
16.32120,472264
16.32745,391332
16.33370,290248
16.33997,224254
16.34622,186783
16.35247,175234
16.35873,174600
16.36498,175665
16.37123,176199
16.37750,177499
16.38375,178471
16.39000,177004
16.39627,175062
16.40252,179711
16.40877,181182
16.41503,182246
16.42128,176550
16.42753,181342
16.43380,210807
16.44005,305132
16.44630,512885
16.45257,743811
16.45882,856919
16.46507,757045
16.47133,569499
16.47758,433214
16.48383,355713
16.49010,301265
16.49635,250008
16.50260,233478
16.50885,239894
16.51512,293789
16.52137,386695
16.52762,525233
16.53388,603580
16.54013,586265
16.54638,485578
16.55265,391466
16.55890,341888
16.56515,311348
16.57142,276952
16.57767,255115
16.58392,250554
16.59018,248670
16.59643,259525
16.60268,260850
16.60895,258070
16.61520,257846
16.62145,265578
16.62772,271404
16.63397,284426
16.64022,305724
16.64648,332446
16.65273,390812
16.65898,414788
16.66525,388167
16.67150,351741
16.67775,327765
16.68402,336182
16.69027,340885
16.69652,346993
16.70278,315155
16.70903,281665
16.71528,253515
16.72153,226192
16.72780,221274
16.73405,231444
16.74030,233374
16.74657,240435
16.75282,256927
16.75907,295307
16.76533,376412
16.77158,593051
16.77783,1032904
16.78410,1628195
16.79035,2232094
16.79660,2831634
16.80287,3933611
16.80912,5659439
16.81537,7265807
16.82163,7683369
16.82788,7527659
16.83413,7875034
16.84040,9589822
16.84665,1.107864E+07
16.85290,1.104188E+07
16.85917,8765629
16.86542,5801309
16.87167,3971947
16.87793,3323182
16.88418,3324399
16.89043,3589055
16.89670,3615643
16.90295,3548503
16.90920,3212933
16.91547,2649105
16.92172,2344511
16.92797,2407746
16.93423,2794740
16.94048,3226396
16.94673,3236301
16.95298,3062642
16.95925,2850387
16.96550,2879090
16.97175,2738064
16.97802,2235604
16.98427,1645867
16.99052,1283047
16.99678,1096945
17.00303,1076022
17.00928,1216566
17.01555,1737473
17.02180,3259557
17.02805,5908179
17.03432,9682142
17.04057,1.462688E+07
17.04682,2.11397E+07
17.05308,2.955503E+07
17.05933,3.70615E+07
17.06558,4.428316E+07
17.07185,4.803402E+07
17.07810,4.789896E+07
17.08435,4.563926E+07
17.09062,4.282441E+07
17.09687,4.096795E+07
17.10312,4.053629E+07
17.10938,4.47058E+07
17.11563,2.218018E+07
17.12188,5716628
17.12815,5272038
17.13440,5087691
17.14065,4155868
17.14692,3624558
17.15317,4510212
17.15942,8266517
17.16567,1.540909E+07
17.17193,2.466797E+07
17.17818,3.244068E+07
17.18443,3.297195E+07
17.19070,2.418649E+07
17.19695,1.088892E+07
17.20320,3713650
17.20947,2291965
17.21572,2364012
17.22197,2746899
17.22823,3457875
17.23448,5187124
17.24073,9528582
17.24700,1.782285E+07
17.25325,2.809221E+07
17.25950,3.640383E+07
17.26577,3.934767E+07
17.27202,3.499754E+07
17.27827,2.037506E+07
17.28453,7860089
17.29078,6480836
17.29703,9633281
17.30330,1.286212E+07
17.30955,1.383709E+07
17.31580,1.087371E+07
17.32207,6178323
17.32832,2744804
17.33457,1588553
17.34083,1203810
17.34708,1044889
17.35333,931591
17.35960,856560
17.36585,808509
17.37210,770358
17.37837,738041
17.38462,747951
17.39087,755217
17.39712,780699
17.40338,848193
17.40963,992112
17.41588,1127483
17.42215,1173416
17.42840,1085916
17.43465,1012175
17.44092,1073025
17.44717,1456211
17.45342,2280661
17.45968,3168147
17.46593,3792890
17.47218,3233665
17.47845,2138231
17.48470,1215049
17.49095,776300
17.49722,664136
17.50347,665429
17.50972,725130
17.51598,822512
17.52223,962210
17.52848,1016497
17.53475,917259
17.54100,740767
17.54725,613677
17.55352,598690
17.55977,717325
17.56602,1054604
17.57228,1975705
17.57853,4107618
17.58478,6766591
17.59105,8064321
17.59730,7254349
17.60355,4361954
17.60980,2054898
17.61607,1037823
17.62232,786416
17.62857,769397
17.63483,762422
17.64108,714308
17.64733,623336
17.65360,566669
17.65985,534233
17.66610,502884
17.67237,481925
17.67862,473346
17.68487,484199
17.69113,561400
17.69738,796746
17.70363,1286197
17.70990,2064034
17.71615,2676627
17.72240,2433058
17.72867,1644249
17.73492,924639
17.74117,585495
17.74743,501331
17.75368,510638
17.75993,522217
17.76620,541993
17.77245,619778
17.77870,728431
17.78497,950097
17.79122,1308985
17.79747,2212891
17.80373,3729248
17.80998,5739626
17.81623,6482866
17.82248,6666612
17.82875,5126828
17.83500,3330129
17.84125,1941144
17.84752,1298153
17.85377,997899
17.86002,927526
17.86628,1320926
17.87253,2733826
17.87878,5297425
17.88505,7484497
17.89130,7620368
17.89755,5348364
17.90382,2783112
17.91007,1294661
17.91632,764888
17.92258,599122
17.92883,534891
17.93508,499496
17.94135,473160
17.94760,460662
17.95385,434809
17.96012,422226
17.96637,412655
17.97262,425258
17.97888,438976
17.98513,454844
17.99138,477885
17.99765,524290
18.00390,611380
18.01015,751653
18.01642,914457
18.02267,1017777
18.02892,938937
18.03518,757712
18.04143,604680
18.04768,508022
18.05393,456187
18.06020,416940
18.06645,388298
18.07270,366777
18.07897,359043
18.08522,369316
18.09147,403134
18.09773,462648
18.10398,564152
18.11023,660498
18.11650,729529
18.12275,731979
18.12900,773726
18.13527,1105782
18.14152,1933170
18.14777,3054763
18.15403,3566977
18.16028,2921390
18.16653,1754896
18.17280,881216
18.17905,525499
18.18530,400854
18.19157,350546
18.19782,327581
18.20407,325204
18.21033,329168
18.21658,351731
18.22283,391060
18.22910,412926
18.23535,410363
18.24160,373480
18.24787,341771
18.25412,318768
18.26037,321180
18.26662,328087
18.27288,337638
18.27913,355201
18.28538,392966
18.29165,429693
18.29790,564165
18.30415,788791
18.31042,1045152
18.31667,1213269
18.32292,1271956
18.32918,1083672
18.33543,821117
18.34168,553218
18.34795,387905
18.35420,317968
18.36045,319447
18.36672,339027
18.37297,343309
18.37922,339261
18.38548,357916
18.39173,426578
18.39798,478052
18.40425,487454
18.41050,475051
18.41675,478073
18.42302,496238
18.42927,473720
18.43552,413398
18.44178,348616
18.44803,308592
18.45428,283430
18.46055,264240
18.46680,246431
18.47305,235936
18.47932,237118
18.48557,234292
18.49182,227391
18.49807,227436
18.50433,226484
18.51058,234263
18.51683,233024
18.52310,237544
18.52935,234473
18.53560,232404
18.54187,229759
18.54812,234517
18.55437,248448
18.56063,268387
18.56688,276763
18.57313,274363
18.57940,260677
18.58565,244699
18.59190,243461
18.59817,246880
18.60442,294882
18.61067,398952
18.61693,572018
18.62318,731214
18.62943,713371
18.63570,614706
18.64195,575876
18.64820,656487
18.65447,743566
18.66072,708540
18.66697,576888
18.67323,457302
18.67948,384417
18.68573,346788
18.69200,306017
18.69825,273714
18.70450,266924
18.71075,289012
18.71702,322228
18.72327,355941
18.72952,361562
18.73578,328576
18.74203,289877
18.74828,259289
18.75455,256151
18.76080,251906
18.76705,259244
18.77332,244695
18.77957,223681
18.78582,212449
18.79208,210600
18.79833,201514
18.80458,203191
18.81085,206921
18.81710,214200
18.82335,213246
18.82962,218525
18.83587,222896
18.84212,220073
18.84838,217932
18.85463,213752
18.86088,243542
18.86715,366312
18.87340,705064
18.87965,1636379
18.88592,3985156
18.89217,9205847
18.89842,1.875951E+07
18.90468,3.003035E+07
18.91093,4.026434E+07
18.91718,4.603142E+07
18.92345,4.40936E+07
18.92970,2.889548E+07
18.93595,9514605
18.94220,2234732
18.94847,675379
18.95472,408406
18.96097,339219
18.96723,299457
18.97348,262097
18.97973,238703
18.98600,228123
18.99225,224253
18.99850,226309
19.00477,228771
19.01102,242277
19.01727,254544
19.02353,252246
19.02978,240085
19.03603,229371
19.04230,224240
19.04855,234322
19.05480,248087
19.06107,256793
19.06732,255294
19.07357,245921
19.07983,248208
19.08608,271516
19.09233,303352
19.09860,324653
19.10485,325062
19.11110,318509
19.11737,315269
19.12362,303077
19.12987,304658
19.13613,299748
19.14238,296830
19.14863,286909
19.15488,266979
19.16115,254903
19.16740,234193
19.17365,219804
19.17992,206522
19.18617,201037
19.19242,202310
19.19868,205402
19.20493,209650
19.21118,212675
19.21745,209092
19.22370,202961
19.22995,193523
19.23622,188549
19.24247,180874
19.24872,171613
19.25498,172101
19.26123,166234
19.26748,165288
19.27375,167417
19.28000,171020
19.28625,168892
19.29252,178820
19.29877,188509
19.30502,189960
19.31128,184037
19.31753,181306
19.32378,163937
19.33005,156942
19.33630,160831
19.34255,173110
19.34882,196421
19.35507,224150
19.36132,243245
19.36757,243659
19.37383,224027
19.38008,213747
19.38633,203438
19.39260,201910
19.39885,208797
19.40510,227788
19.41137,234383
19.41762,241263
19.42387,228830
19.43013,214180
19.43638,205541
19.44263,206665
19.44890,209493
19.45515,224060
19.46140,224454
19.46767,212653
19.47392,206236
19.48017,195325
19.48643,192834
19.49268,190483
19.49893,203489
19.50520,211845
19.51145,218767
19.51770,220422
19.52397,236115
19.53022,241086
19.53647,235866
19.54273,239118
19.54898,261517
19.55523,302106
19.56150,334555
19.56775,342221
19.57400,316775
19.58027,260892
19.58652,225449
19.59277,206298
19.59902,194022
19.60528,199586
19.61153,192263
19.61778,188664
19.62405,183225
19.63030,185755
19.63655,202157
19.64282,226013
19.64907,242266
19.65532,239506
19.66158,226399
19.66783,225423
19.67408,250521
19.68035,293350
19.68660,337476
19.69285,356533
19.69912,315924
19.70537,277093
19.71162,247029
19.71788,251017
19.72413,254612
19.73038,258540
19.73665,263531
19.74290,272705
19.74915,285846
19.75542,268710
19.76167,248749
19.76792,255511
19.77418,285597
19.78043,317273
19.78668,326281
19.79295,309505
19.79920,299607
19.80545,314709
19.81170,335445
19.81797,323520
19.82422,272266
19.83047,221502
19.83673,190058
19.84298,174582
19.84923,172829
19.85550,186721
19.86175,198553
19.86800,223516
19.87427,254779
19.88052,262267
19.88677,246731
19.89303,214901
19.89928,206344
19.90553,247196
19.91180,411059
19.91805,972720
19.92430,2409567
19.93057,4000976
19.93682,4785478
19.94307,3939856
19.94933,2215571
19.95558,969774
19.96183,451267
19.96810,356935
19.97435,431015
19.98060,560220
19.98687,699913
19.99312,748476
19.99937,655680
20.00563,523204
20.01188,401390
20.01813,309598
20.02438,268099
20.03065,231614
20.03690,219906
20.04315,214531
20.04942,225139
20.05567,245817
20.06192,267426
20.06818,254172
20.07443,227506
20.08068,199659
20.08695,185840
20.09320,187990
20.09945,202136
20.10572,215658
20.11197,212625
20.11822,201239
20.12448,191480
20.13073,181828
20.13698,179021
20.14325,184644
20.14950,191167
20.15575,199649
20.16202,200094
20.16827,197453
20.17452,192472
20.18078,185461
20.18703,183312
20.19328,185523
20.19955,193282
20.20580,201846
20.21205,215603
20.21832,219060
20.22457,224993
20.23082,236561
20.23708,241165
20.24333,254576
20.24958,255263
20.25583,241750
20.26210,228471
20.26835,211236
20.27460,205565
20.28087,204398
20.28712,208635
20.29337,261625
20.29963,406829
20.30588,665818
20.31213,964497
20.31840,1059987
20.32465,917512
20.33090,590246
20.33717,368323
20.34342,274183
20.34967,246892
20.35593,252624
20.36218,252173
20.36843,241047
20.37470,220214
20.38095,206887
20.38720,209687
20.39347,204617
20.39972,208530
20.40597,209663
20.41223,219396
20.41848,238568
20.42473,277035
20.43100,354789
20.43725,569315
20.44350,933492
20.44977,1357064
20.45602,1584556
20.46227,1399713
20.46852,893891
20.47478,538067
20.48103,451670
20.48728,535106
20.49355,662349
20.49980,697835
20.50605,582243
20.51232,426281
20.51857,329606
20.52482,285885
20.53108,273947
20.53733,279713
20.54358,281217
20.54985,323590
20.55610,405608
20.56235,489492
20.56862,517773
20.57487,463033
20.58112,359705
20.58738,308175
20.59363,293107
20.59988,308023
20.60615,320559
20.61240,298658
20.61865,270670
20.62492,240334
20.63117,216763
20.63742,199179
20.64368,193952
20.64993,204884
20.65618,228716
20.66245,258831
20.66870,273676
20.67495,272135
20.68120,262954
20.68747,253345
20.69372,238446
20.69997,229153
20.70623,229480
20.71248,276951
20.71873,414579
20.72500,704063
20.73125,1008562
20.73750,1138759
20.74377,1024395
20.75002,748096
20.75627,503396
20.76253,450828
20.76878,562249
20.77503,760145
20.78130,895991
20.78755,850990
20.79380,668855
20.80007,471108
20.80632,352290
20.81257,299949
20.81883,255317
20.82508,238611
20.83133,227395
20.83760,240172
20.84385,258308
20.85010,269196
20.85637,269552
20.86262,263542
20.86887,250056
20.87513,246648
20.88138,229585
20.88763,221504
20.89390,224926
20.90015,233295
20.90640,255652
20.91265,270216
20.91892,290461
20.92517,300563
20.93142,309503
20.93768,358674
20.94393,517295
20.95018,809698
20.95645,1026043
20.96270,1069569
20.96895,849778
20.97522,616788
20.98147,459362
20.98772,387646
20.99398,346351
21.00023,307366
21.00648,353302
21.01275,488166
21.01900,688258
21.02525,811825
21.03152,777560
21.03777,622427
21.04402,465689
21.05028,377189
21.05653,354985
21.06278,329159
21.06905,301343
21.07530,287993
21.08155,298629
21.08782,330984
21.09407,335207
21.10032,298959
21.10658,261780
21.11283,238175
21.11908,232874
21.12533,235852
21.13160,241753
21.13785,241598
21.14410,230191
21.15037,223351
21.15662,213993
21.16287,214023
21.16913,221323
21.17538,231034
21.18163,247128
21.18790,256789
21.19415,241918
21.20040,225551
21.20667,223297
21.21292,229454
21.21917,233506
21.22543,236971
21.23168,239940
21.23793,249160
21.24420,276757
21.25045,311800
21.25670,336337
21.26297,330272
21.26922,295198
21.27547,269616
21.28173,288925
21.28798,335637
21.29423,391112
21.30050,398059
21.30675,349877
21.31300,289898
21.31927,248400
21.32552,232632
21.33177,232783
21.33803,242280
21.34428,245694
21.35053,240820
21.35678,230672
21.36305,228223
21.36930,263808
21.37555,305629
21.38182,343242
21.38807,341153
21.39432,296604
21.40058,249876
21.40683,218261
21.41308,208413
21.41935,216331
21.42560,235423
21.43185,250964
21.43812,243022
21.44437,240444
21.45062,244942
21.45688,264999
21.46313,327020
21.46938,405666
21.47565,468803
21.48190,450877
21.48815,402786
21.49442,343044
21.50067,335412
21.50692,352625
21.51318,366367
21.51943,352629
21.52568,295872
21.53195,245172
21.53820,212877
21.54445,201653
21.55072,195686
21.55697,194081
21.56322,181680
21.56947,191445
21.57573,202138
21.58198,222043
21.58823,234263
21.59450,247691
21.60075,269822
21.60700,294452
21.61327,296064
21.61952,257818
21.62577,218760
21.63203,186702
21.63828,172201
21.64453,161315
21.65080,152695
21.65705,147634
21.66330,146557
21.66957,149066
21.67582,150552
21.68207,159155
21.68833,169135
21.69458,175126
21.70083,176230
21.70710,168818
21.71335,157893
21.71960,149620
21.72587,144354
21.73212,148170
21.73837,155060
21.74463,151223
21.75088,158094
21.75713,163915
21.76340,174113
21.76965,177083
21.77590,181663
21.78217,183860
21.78842,197815
21.79467,221988
21.80092,245594
21.80718,256251
21.81343,252833
21.81968,229032
21.82595,205377
21.83220,203537
21.83845,195405
21.84472,204508
21.85097,227841
21.85722,244613
21.86348,273167
21.86973,303944
21.87598,326208
21.88225,315390
21.88850,273188
21.89475,230024
21.90102,201373
21.90727,204023
21.91352,225142
21.91978,243774
21.92603,241700
21.93228,225934
21.93855,202464
21.94480,185961
21.95105,185296
21.95732,176876
21.96357,170366
21.96982,155443
21.97608,155722
21.98233,155241
21.98858,164194
21.99485,175016
22.00110,184055
22.00735,186943
22.01360,195394
22.01987,187170
22.02612,186729
22.03237,193496
22.03863,197047
22.04488,220238
22.05113,242794
22.05740,251924
22.06365,279193
22.06990,297359
22.07617,304321
22.08242,309948
22.08867,305663
22.09493,278365
22.10118,269168
22.10743,238115
22.11370,222330
22.11995,213222
22.12620,219768
22.13247,221689
22.13872,234578
22.14497,230108
22.15123,225404
22.15748,212485
22.16373,210445
22.17000,201249
22.17625,204838
22.18250,205454
22.18877,205333
22.19502,212232
22.20127,224395
22.20753,210515
22.21378,207082
22.22003,189702
22.22630,183266
22.23255,176453
22.23880,181264
22.24505,192776
22.25132,217296
22.25757,258180
22.26382,329746
22.27008,399118
22.27633,411503
22.28258,371669
22.28885,319104
22.29510,276034
22.30135,267481
22.30762,255950
22.31387,242313
22.32012,231581
22.32638,232548
22.33263,242450
22.33888,244896
22.34515,248690
22.35140,258868
22.35765,322136
22.36392,535824
22.37017,870857
22.37642,1215845
22.38268,1325618
22.38893,1087497
22.39518,677173
22.40145,398826
22.40770,272738
22.41395,229929
22.42022,221222
22.42647,229413
22.43272,247383
22.43898,273820
22.44523,325887
22.45148,369586
22.45773,431619
22.46400,517921
22.47025,621876
22.47650,622065
22.48277,532772
22.48902,414817
22.49527,320490
22.50153,276745
22.50778,260916
22.51403,246269
22.52030,234706
22.52655,219800
22.53280,215513
22.53907,231581
22.54532,284845
22.55157,387257
22.55783,519148
22.56408,586416
22.57033,566846
22.57660,482484
22.58285,394563
22.58910,321123
22.59537,271072
22.60162,238205
22.60787,226621
22.61413,225241
22.62038,238689
22.62663,252031
22.63290,254950
22.63915,259425
22.64540,276511
22.65167,314698
22.65792,329078
22.66417,317412
22.67042,282417
22.67668,268553
22.68293,267842
22.68918,266499
22.69545,270388
22.70170,267813
22.70795,249935
22.71422,229215
22.72047,219411
22.72672,213977
22.73298,211227
22.73923,213872
22.74548,218220
22.75175,226038
22.75800,235414
22.76425,230464
22.77052,237059
22.77677,252193
22.78302,286936
22.78928,445482
22.79553,1083868
22.80178,3078035
22.80805,7056032
22.81430,1.204562E+07
22.82055,1.637508E+07
22.82682,1.612288E+07
22.83307,1.09087E+07
22.83932,4990410
22.84558,1983199
22.85183,926837
22.85808,574326
22.86435,452402
22.87060,395668
22.87685,352271
22.88312,324811
22.88937,302254
22.89562,283899
22.90187,278975
22.90813,273595
22.91438,261960
22.92063,253616
22.92690,259103
22.93315,252943
22.93940,253447
22.94567,255710
22.95192,256232
22.95817,251023
22.96443,242611
22.97068,234765
22.97693,236098
22.98320,252417
22.98945,271575
22.99570,284522
23.00197,279678
23.00822,274991
23.01447,253237
23.02073,237706
23.02698,225016
23.03323,216782
23.03950,211184
23.04575,215821
23.05200,213780
23.05827,215554
23.06452,231012
23.07077,283963
23.07703,394917
23.08328,572515
23.08953,681428
23.09580,696440
23.10205,569941
23.10830,414105
23.11455,307138
23.12082,254167
23.12707,225743
23.13332,216483
23.13958,210177
23.14583,204131
23.15208,197922
23.15835,200630
23.16460,191985
23.17085,188219
23.17712,186995
23.18337,179517
23.18962,187634
23.19588,191764
23.20213,195291
23.20838,204725
23.21465,205908
23.22090,203118
23.22715,194888
23.23342,192294
23.23967,186857
23.24592,184286
23.25218,192693
23.25843,194013
23.26468,203010
23.27095,202502
23.27720,197780
23.28345,185045
23.28972,182753
23.29597,187898
23.30222,208034
23.30848,260407
23.31473,335219
23.32098,458317
23.32723,547981
23.33350,524530
23.33975,446755
23.34600,339134
23.35227,269394
23.35852,230799
23.36477,219890
23.37103,208676
23.37728,200684
23.38353,198676
23.38980,201518
23.39605,196086
23.40230,197051
23.40857,199119
23.41482,193734
23.42107,193037
23.42733,192112
23.43358,191591
23.43983,200702
23.44610,206764
23.45235,238953
23.45860,279399
23.46487,335765
23.47112,351902
23.47737,366776
23.48363,379772
23.48988,417549
23.49613,447343
23.50240,490723
23.50865,494043
23.51490,513208
23.52117,606216
23.52742,686081
23.53367,705677
23.53993,603914
23.54618,469665
23.55243,351301
23.55868,292611
23.56495,274011
23.57120,273626
23.57745,314358
23.58372,366798
23.58997,442544
23.59622,487290
23.60248,459067
23.60873,397137
23.61498,333200
23.62125,294657
23.62750,261319
23.63375,252078
23.64002,262437
23.64627,281153
23.65252,300980
23.65878,298665
23.66503,287029
23.67128,254339
23.67755,232750
23.68380,223439
23.69005,234329
23.69632,263871
23.70257,282726
23.70882,294898
23.71508,280034
23.72133,283937
23.72758,338454
23.73385,443797
23.74010,539039
23.74635,594598
23.75262,531476
23.75887,416507
23.76512,314051
23.77137,263104
23.77763,247133
23.78388,241819
23.79013,238801
23.79640,244922
23.80265,244815
23.80890,251143
23.81517,256177
23.82142,272757
23.82767,298338
23.83393,312046
23.84018,299942
23.84643,278408
23.85270,256009
23.85895,239539
23.86520,238624
23.87147,232599
23.87772,243763
23.88397,266140
23.89023,304617
23.89648,376669
23.90273,425861
23.90900,425451
23.91525,395660
23.92150,343563
23.92777,304270
23.93402,279364
23.94027,269712
23.94653,274020
23.95278,287733
23.95903,357362
23.96530,589502
23.97155,1280156
23.97780,2620486
23.98405,4693900
23.99032,8129890
23.99657,1.296872E+07
24.00282,1.896042E+07
24.00908,2.477509E+07
24.01533,2.680296E+07
24.02158,2.241365E+07
24.02785,1.316648E+07
24.03410,6385959
24.04035,2949492
24.04662,1694202
24.05287,1180041
24.05912,905710
24.06538,740732
24.07163,669599
24.07788,682047
24.08415,751242
24.09040,786486
24.09665,796349
24.10292,828648
24.10917,1110956
24.11542,2007464
24.12168,3372426
24.12793,5009581
24.13418,5838561
24.14045,5048784
24.14670,3294105
24.15295,1945099
24.15922,1127401
24.16547,738161
24.17172,571835
24.17798,490670
24.18423,487506
24.19048,539636
24.19675,652374
24.20300,874886
24.20925,1464697
24.21550,3304529
24.22177,7418390
24.22802,1.379365E+07
24.23427,2.127599E+07
24.24053,2.811482E+07
24.24678,3.510419E+07
24.25303,3.901248E+07
24.25930,4.077925E+07
24.26555,4.167812E+07
24.27180,4.138008E+07
24.27807,4.098462E+07
24.28432,3.738356E+07
24.29057,1.509857E+07
24.29683,4267736
24.30308,2312295
24.30933,1677819
24.31560,1355090
24.32185,1165765
24.32810,1021551
24.33437,928440
24.34062,871992
24.34687,832793
24.35313,814200
24.35938,799087
24.36563,808281
24.37190,835089
24.37815,878999
24.38440,917997
24.39067,917169
24.39692,868863
24.40317,792593
24.40943,715740
24.41568,673765
24.42193,632845
24.42818,633622
24.43445,683210
24.44070,823033
24.44695,1067692
24.45322,1305019
24.45947,1383381
24.46572,1224550
24.47198,953594
24.47823,745281
24.48448,616210
24.49075,540259
24.49700,486862
24.50325,452762
24.50952,430978
24.51577,407533
24.52202,399036
24.52828,378901
24.53453,369211
24.54078,368217
24.54705,362126
24.55330,354037
24.55955,350652
24.56582,345237
24.57207,338957
24.57832,329392
24.58458,324115
24.59083,327096
24.59708,318399
24.60335,315242
24.60960,300618
24.61585,292286
24.62212,286106
24.62837,273736
24.63462,273382
24.64088,274308
24.64713,270234
24.65338,273041
24.65963,263511
24.66590,260366
24.67215,263203
24.67840,277019
24.68467,323073
24.69092,389865
24.69717,478987
24.70343,504090
24.70968,473706
24.71593,401437
24.72220,332020
24.72845,292143
24.73470,269640
24.74097,258557
24.74722,244271
24.75347,236335
24.75973,234117
24.76598,227554
24.77223,231982
24.77850,237354
24.78475,239790
24.79100,259875
24.79727,272207
24.80352,275958
24.80977,254940
24.81603,237304
24.82228,217232
24.82853,203036
24.83480,198642
24.84105,195484
24.84730,191409
24.85357,188101
24.85982,185881
24.86607,185946
24.87232,196975
24.87858,210981
24.88483,234204
24.89108,268501
24.89735,310479
24.90360,347717
24.90985,342976
24.91612,315080
24.92237,266892
24.92862,250005
24.93488,234518
24.94113,231767
24.94738,230313
24.95365,245932
24.95990,274690
24.96615,299962
24.97242,298695
24.97867,282624
24.98492,249833
24.99118,225498
24.99743,218307
25.00368,202561
25.00995,199091
25.01620,198943
25.02245,199814
25.02872,202254
25.03497,216407
25.04122,223883
25.04748,229446
25.05373,230462
25.05998,217946
25.06625,211962
25.07250,203029
25.07875,195236
25.08502,194608
25.09127,195072
25.09752,197831
25.10377,207540
25.11003,217894
25.11628,221257
25.12253,220892
25.12880,210772
25.13505,216485
25.14130,210010
25.14757,203001
25.15382,195033
25.16007,187065
25.16633,176573
25.17258,174000
25.17883,181308
25.18510,190098
25.19135,205901
25.19760,215628
25.20387,219821
25.21012,213388
25.21637,196842
25.22263,187971
25.22888,179726
25.23513,171926
25.24140,171607
25.24765,172302
25.25390,171828
25.26017,169949
25.26642,167554
25.27267,165721
25.27893,167792
25.28518,181392
25.29143,206223
25.29770,268551
25.30395,328050
25.31020,370102
25.31645,364589
25.32272,323307
25.32897,272563
25.33522,234736
25.34148,207374
25.34773,203550
25.35398,193162
25.36025,185200
25.36650,184934
25.37275,186178
25.37902,193205
25.38527,195769
25.39152,203297
25.39778,224325
25.40403,283579
25.41028,392166
25.41655,560637
25.42280,679989
25.42905,667957
25.43532,585920
25.44157,472761
25.44782,394883
25.45408,348240
25.46033,316138
25.46658,294272
25.47285,275757
25.47910,266530
25.48535,255357
25.49162,259846
25.49787,279174
25.50412,317548
25.51038,376038
25.51663,408488
25.52288,421893
25.52915,389561
25.53540,371085
25.54165,379464
25.54790,442667
25.55417,515068
25.56042,515910
25.56667,469589
25.57293,378917
25.57918,312049
25.58543,274616
25.59170,243857
25.59795,227911
25.60420,226137
25.61047,215885
25.61672,220047
25.62297,222803
25.62923,214470
25.63548,209786
25.64173,205855
25.64800,194738
25.65425,193302
25.66050,187584
25.66677,185168
25.67302,176523
25.67927,183024
25.68553,179565
25.69178,182471
25.69803,181946
25.70430,183514
25.71055,178170
25.71680,174589
25.72307,175166
25.72932,167553
25.73557,168448
25.74183,167100
25.74808,163649
25.75433,161873
25.76058,163022
25.76685,168449
25.77310,167138
25.77935,163802
25.78562,167364
25.79187,163870
25.79812,164750
25.80438,161933
25.81063,159307
25.81688,152702
25.82315,156321
25.82940,157497
25.83565,147135
25.84192,154283
25.84817,151394
25.85442,149417
25.86068,157131
25.86693,155686
25.87318,161030
25.87945,156217
25.88570,156964
25.89195,157982
25.89822,158098
25.90447,152200
25.91072,154112
25.91698,151129
25.92323,149948
25.92948,146890
25.93575,145704
25.94200,145456
25.94825,153951
25.95452,149583
25.96077,147736
25.96702,143940
25.97327,151682
25.97953,154689
25.98578,159438
25.99203,167679
25.99830,177126
26.00455,171186
26.01080,167192
26.01707,158868
26.02332,152082
26.02957,157654
26.03583,157321
26.04208,162929
26.04833,167155
26.05460,168491
26.06085,167727
26.06710,172327
26.07337,170408
26.07962,167054
26.08587,163892
26.09213,160459
26.09838,157463
26.10463,157958
26.11090,157295
26.11715,156675
26.12340,158638
26.12967,154061
26.13592,152384
26.14217,149375
26.14843,143968
26.15468,147101
26.16093,144649
26.16720,148474
26.17345,148577
26.17970,146252
26.18597,147286
26.19222,150999
26.19847,150048
26.20472,146030
26.21098,145349
26.21723,145533
26.22348,142258
26.22975,147238
26.23600,143657
26.24225,143134
26.24852,143425
26.25477,144199
26.26102,141427
26.26728,139028
26.27353,141793
26.27978,141128
26.28605,142151
26.29230,145354
26.29855,143692
26.30482,143489
26.31107,146688
26.31732,146801
26.32358,145935
26.32983,148737
26.33608,149511
26.34235,151066
26.34860,152975
26.35485,152069
26.36112,151909
26.36737,163125
26.37362,191051
26.37988,259066
26.38613,359534
26.39238,448926
26.39865,453018
26.40490,396472
26.41115,318034
26.41740,235613
26.42367,197114
26.42992,179459
26.43617,171734
26.44243,166923
26.44868,164080
26.45493,163214
26.46120,162083
26.46745,161460
26.47370,161494
26.47997,163121
26.48622,165121
26.49247,163990
26.49873,161632
26.50498,165223
26.51123,164105
26.51750,166669
26.52375,162586
26.53000,170317
26.53627,175884
26.54252,189479
26.54877,188836
26.55503,191734
26.56128,181391
26.56753,167223
26.57380,165422
26.58005,163339
26.58630,157239
26.59257,157631
26.59882,157539
26.60507,159780
26.61133,168389
26.61758,173358
26.62383,173253
26.63008,173808
26.63635,177848
26.64260,173062
26.64885,173025
26.65512,190245
26.66137,238300
26.66762,332225
26.67388,494040
26.68013,655802
26.68638,744565
26.69265,724364
26.69890,609231
26.70515,499741
26.71142,432760
26.71767,398191
26.72392,354977
26.73018,315934
26.73643,289786
26.74268,263793
26.74895,255454
26.75520,249816
26.76145,253329
26.76772,278641
26.77397,329927
26.78022,359794
26.78648,374037
26.79273,361337
26.79898,345447
26.80525,328532
26.81150,313394
26.81775,287593
26.82402,284625
26.83027,315135
26.83652,419117
26.84278,597177
26.84903,787418
26.85528,874405
26.86153,757793
26.86780,572663
26.87405,420581
26.88030,329218
26.88657,292638
26.89282,298840
26.89907,322070
26.90533,383717
26.91158,578330
26.91783,1217208
26.92410,2785388
26.93035,5956419
26.93660,1.04321E+07
26.94287,1.494063E+07
26.94912,1.748183E+07
26.95537,1.580172E+07
26.96163,9735300
26.96788,4904660
26.97413,2680993
26.98040,1668314
26.98665,1140010
26.99290,816035
26.99917,621070
27.00542,496993
27.01167,453831
27.01793,471652
27.02418,617072
27.03043,872231
27.03670,1107605
27.04295,1138759
27.04920,975158
27.05547,759462
27.06172,585156
27.06797,477947
27.07422,417426
27.08048,379711
27.08673,352663
27.09298,319969
27.09925,300050
27.10550,278997
27.11175,269689
27.11802,254625
27.12427,255277
27.13052,263071
27.13678,294265
27.14303,332583
27.14928,369474
27.15555,375907
27.16180,354141
27.16805,318312
27.17432,286895
27.18057,275504
27.18682,266666
27.19308,264564
27.19933,261147
27.20558,251560
27.21185,246137
27.21810,243565
27.22435,242344
27.23062,242818
27.23687,242293
27.24312,234731
27.24938,236407
27.25563,237462
27.26188,240639
27.26815,246705
27.27440,243894
27.28065,234018
27.28692,237663
27.29317,228986
27.29942,231656
27.30567,227879
27.31193,221013
27.31818,224812
27.32443,219943
27.33070,221037
27.33695,216623
27.34320,218326
27.34947,214172
27.35572,218971
27.36197,218496
27.36823,218598
27.37448,228065
27.38073,222870
27.38700,226860
27.39325,230171
27.39950,231777
27.40577,230522
27.41202,239987
27.41827,244970
27.42453,261263
27.43078,249533
27.43703,250214
27.44330,239506
27.44955,230429
27.45580,220558
27.46207,217340
27.46832,210442
27.47457,205999
27.48083,209854
27.48708,202387
27.49333,205261
27.49960,210293
27.50585,206737
27.51210,206232
27.51835,206384
27.52462,199980
27.53087,199911
27.53712,203729
27.54338,203139
27.54963,204244
27.55588,201824
27.56215,201796
27.56840,206827
27.57465,206979
27.58092,196631
27.58717,203444
27.59342,202349
27.59968,198716
27.60593,202852
27.61218,211351
27.61845,201599
27.62470,201072
27.63095,206516
27.63722,198304
27.64347,200128
27.64972,201940
27.65598,202514
27.66223,207708
27.66848,201831
27.67475,208939
27.68100,206507
27.68725,205691
27.69352,212803
27.69977,213352
27.70602,214825
27.71228,216129
27.71853,207292
27.72478,220685
27.73105,225340
27.73730,223494
27.74355,223455
27.74980,219689
27.75607,222385
27.76232,214516
27.76857,225397
27.77483,220013
27.78108,222195
27.78733,220727
27.79360,219952
27.79985,215653
27.80610,216281
27.81237,207809
27.81862,210340
27.82487,209140
27.83113,208825
27.83738,211188
27.84363,217767
27.84990,235308
27.85615,274763
27.86240,363557
27.86867,479911
27.87492,629580
27.88117,737835
27.88743,705143
27.89368,623888
27.89993,527379
27.90620,449399
27.91245,393218
27.91870,363032
27.92497,340153
27.93122,317516
27.93747,307018
27.94373,301549
27.94998,283250
27.95623,282785
27.96248,271272
27.96875,269610
27.97500,263777
27.98125,262678
27.98752,258676
27.99377,262210
28.00002,260754
28.00628,268207
28.01253,255703
28.01878,253585
28.02505,257367
28.03130,251472
28.03755,248591
28.04382,241065
28.05007,243419
28.05632,243201
28.06258,236313
28.06883,234558
28.07508,236529
28.08135,229626
28.08760,234197
28.09385,233756
28.10012,235817
28.10637,230405
28.11262,232502
28.11888,236187
28.12513,238767
28.13138,232509
28.13765,240572
28.14390,232698
28.15015,230089
28.15642,231056
28.16267,223432
28.16892,227603
28.17518,229425
28.18143,225926
28.18768,227552
28.19393,228141
28.20020,225882
28.20645,225727
28.21270,220211
28.21897,227154
28.22522,229780
28.23147,222988
28.23773,225107
28.24398,224908
28.25023,228331
28.25650,225983
28.26275,221291
28.26900,221745
28.27527,224843
28.28152,231807
28.28777,228248
28.29403,227476
28.30028,225740
28.30653,232806
28.31280,226106
28.31905,227827
28.32530,231014
28.33157,230687
28.33782,237309
28.34407,233902
28.35033,240624
28.35658,238937
28.36283,249794
28.36910,247405
28.37535,256243
28.38160,256763
28.38787,269018
28.39412,266462
28.40037,279384
28.40662,281489
28.41288,288228
28.41913,298648
28.42538,296026
28.43165,297595
28.43790,296476
28.44415,295903
28.45042,292059
28.45667,299284
28.46292,296672
28.46918,295168
28.47543,297422
28.48168,292162
28.48795,281528
28.49420,279445
28.50045,286609
28.50672,271950
28.51297,278193
28.51922,277726
28.52548,271374
28.53173,263315
28.53798,264125
28.54425,252100
28.55050,253018
28.55675,249657
28.56302,247656
28.56927,247145
28.57552,239658
28.58178,244474
28.58803,236034
28.59428,233643
28.60055,237302
28.60680,240033
28.61305,236894
28.61930,229389
28.62557,232521
28.63182,236873
28.63807,240287
28.64433,228990
28.65058,233863
28.65683,232700
28.66310,238680
28.66935,237260
28.67560,236993
28.68187,231346
28.68812,228542
28.69437,233860
28.70063,229070
28.70688,227742
28.71313,231812
28.71940,230664
28.72565,226418
28.73190,234327
28.73817,231237
28.74442,229742
28.75067,235564
28.75693,241012
28.76318,230441
28.76943,230605
28.77570,224970
28.78195,229649
28.78820,224474
28.79447,224982
28.80072,228552
28.80697,228315
28.81323,221381
28.81948,223427
28.82573,224420
28.83200,229625
28.83825,217299
28.84450,221216
28.85075,225408
28.85702,219311
28.86327,227826
28.86952,220712
28.87578,219023
28.88203,222933
28.88828,222861
28.89455,218465
28.90080,215079
28.90705,223955
28.91332,218477
28.91957,218380
28.92582,222983
28.93208,218541
28.93833,215062
28.94458,219668
28.95085,222955
28.95710,218398
28.96335,213262
28.96962,212205
28.97587,216341
28.98212,214679
28.98838,213764
28.99463,223910
29.00088,221336
29.00715,222149
29.01340,223677
29.01965,218330
29.02592,220764
29.03217,223359
29.03842,226328
29.04468,217682
29.05093,213767
29.05718,217678
29.06343,222426
29.06970,221665
29.07595,221036
29.08220,221380
29.08847,215044
29.09472,222184
29.10097,218073
29.10723,220372
29.11348,215559
29.11973,218440
29.12600,221671
29.13225,213682
29.13850,217416
29.14477,220760
29.15102,219823
29.15727,216638
29.16353,213147
29.16978,218484
29.17603,211017
29.18230,211843
29.18855,214285
29.19480,212365
29.20107,213297
29.20732,211744
29.21357,223320
29.21983,232059
29.22608,245429
29.23233,269823
29.23860,309369
29.24485,367718
29.25110,439940
29.25737,495429
29.26362,518857
29.26987,488214
29.27612,444311
29.28238,398689
29.28863,352494
29.29488,320372
29.30115,298421
29.30740,287930
29.31365,285499
29.31992,266103
29.32617,271052
29.33242,259846
29.33868,263518
29.34493,261300
29.35118,249302
29.35745,251151
29.36370,242943
29.36995,246615
29.37622,246963
29.38247,242044
29.38872,239749
29.39498,237347
29.40123,231633
29.40748,229843
29.41375,229904
29.42000,235736
29.42625,230818
29.43252,234234
29.43877,222543
29.44502,221572
29.45128,222152
29.45753,229772
29.46378,223373
29.47005,231521
29.47630,219470
29.48255,227208
29.48882,224958
29.49507,218097
29.50132,219023
29.50757,218939
29.51383,216108
29.52008,223429
29.52633,222350
29.53260,218072
29.53885,217175
29.54510,214920
29.55137,221043
29.55762,217345
29.56387,218803
29.57013,212124
29.57638,220098
29.58263,210009
29.58890,209947
29.59515,213947
29.60140,212994
29.60767,214030
29.61392,214506
29.62017,216639
29.62643,217706
29.63268,219898
29.63893,213497
29.64520,210777
29.65145,214314
29.65770,209930
29.66397,212876
29.67022,211966
29.67647,212972
29.68273,208577
29.68898,210505
29.69523,209822
29.70150,214719
29.70775,214404
29.71400,208431
29.72025,206258
29.72652,206532
29.73277,212749
29.73902,205039
29.74528,209317
29.75153,211617
29.75778,207380
29.76405,211552
29.77030,205494
29.77655,206130
29.78282,210262
29.78907,207972
29.79532,212018
29.80158,211798
29.80783,210550
29.81408,204741
29.82035,204372
29.82660,207132
29.83285,213076
29.83912,204663
29.84537,203663
29.85162,206753
29.85788,211545
29.86413,201144
29.87038,204977
29.87665,211016
29.88290,209216
29.88915,206159
29.89542,208388
29.90167,209869
29.90792,210607
29.91418,203829
29.92043,213039
29.92668,199933
29.93295,205168
29.93920,201168
29.94545,202716
29.95170,204415
29.95797,199697
29.96422,200722
29.97047,201197
29.97673,203720
29.98298,206670
29.98923,203040
29.99550,201538
30.00175,202431
30.00800,207071
30.01427,205425
30.02052,208409
30.02677,200140
30.03303,199640
30.03928,196878
30.04553,201552
30.05180,203851
30.05805,200368
30.06430,203749
30.07057,202235
30.07682,199978
30.08307,202170
30.08933,205098
30.09558,199563
30.10183,197778
30.10810,206666
30.11435,204605
30.12060,202013
30.12687,205093
30.13312,199361
30.13937,202066
30.14563,202700
30.15188,199002
30.15813,200046
30.16438,198301
30.17065,205501
30.17690,201269
30.18315,200461
30.18942,199696
30.19567,197297
30.20192,196339
30.20818,199214
30.21443,198468
30.22068,198990
30.22695,203243
30.23320,196125
30.23945,195248
30.24572,198670
30.25197,200153
30.25822,200395
30.26448,196518
30.27073,199602
30.27698,194932
30.28325,195306
30.28950,193845
30.29575,194966
30.30202,198672
30.30827,199925
30.31452,190655
30.32078,194159
30.32703,195926
30.33328,199576
30.33955,200855
30.34580,194960
30.35205,199698
30.35832,193167
30.36457,192033
30.37082,199894
30.37708,198883
30.38333,202234
30.38958,193759
30.39583,193225
30.40210,195732
30.40835,198931
30.41460,192186
30.42087,193694
30.42712,198015
30.43337,194200
30.43963,192481
30.44588,196699
30.45213,191234
30.45840,194006
30.46465,196324
30.47090,192791
30.47717,192294
30.48342,194088
30.48967,192759
30.49593,198542
30.50218,194457
30.50843,192251
30.51470,198019
30.52095,194822
30.52720,191442
30.53347,195250
30.53972,190878
30.54597,197993
30.55223,195704
30.55848,191465
30.56473,193329
30.57100,196752
30.57725,192494
30.58350,197843
30.58977,191562
30.59602,191373
30.60227,193868
30.60852,189664
30.61478,190499
30.62103,190686
30.62728,189079
30.63355,187607
30.63980,195271
30.64605,193840
30.65232,193134
30.65857,190998
30.66482,197649
30.67108,202801
30.67733,192390
30.68358,192559
30.68985,195992
30.69610,206606
30.70235,204562
30.70862,206093
30.71487,213060
30.72112,216417
30.72738,216562
30.73363,212565
30.73988,214778
30.74615,213160
30.75240,204312
30.75865,199672
30.76492,198782
30.77117,190930
30.77742,195141
30.78368,195461
30.78993,201790
30.79618,195525
30.80245,198973
30.80870,199056
30.81495,195265
30.82122,191589
30.82747,196453
30.83372,189689
30.83997,195741
30.84623,193741
30.85248,189479
30.85873,194746
30.86500,190985
30.87125,189983
30.87750,191100
30.88377,189947
30.89002,187599
30.89627,190874
30.90253,190509
30.90878,189782
30.91503,187231
30.92130,196700
30.92755,187155
30.93380,187576
30.94007,186657
30.94632,191080
30.95257,188068
30.95883,191408
30.96508,199111
30.97133,191067
30.97760,190685
30.98385,197288
30.99010,207528
30.99637,213095
31.00262,233009
31.00887,245231
31.01513,263168
31.02138,286483
31.02763,293014
31.03390,306301
31.04015,294056
31.04640,284747
31.05265,273195
31.05892,261364
31.06517,248694
31.07142,230149
31.07768,224377
31.08393,210729
31.09018,207533
31.09645,202829
31.10270,202950
31.10895,198967
31.11522,200226
31.12147,201459
31.12772,198570
31.13398,202538
31.14023,198075
31.14648,198946
31.15275,195377
31.15900,196446
31.16525,200158
31.17152,193878
31.17777,200937
31.18402,195711
31.19028,197971
31.19653,192170
31.20278,201001
31.20905,192801
31.21530,194380
31.22155,201464
31.22782,201744
31.23407,191310
31.24032,190637
31.24658,190333
31.25283,191048
31.25908,198907
31.26533,193870
31.27160,193035
31.27785,189317
31.28410,195638
31.29037,189896
31.29662,189275
31.30287,191013
31.30913,189540
31.31538,192062
31.32163,189443
31.32790,195391
31.33415,188609
31.34040,188303
31.34667,191161
31.35292,190643
31.35917,188258
31.36543,186136
31.37168,185588
31.37793,186767
31.38420,188526
31.39045,184662
31.39670,186227
31.40297,192255
31.40922,187218
31.41547,189648
31.42173,192597
31.42798,197052
31.43423,189639
31.44050,190070
31.44675,187752
31.45300,187031
31.45927,190404
31.46552,190630
31.47177,194034
31.47803,192155
31.48428,191320
31.49053,187872
31.49678,195931
31.50305,191370
31.50930,187391
31.51555,185774
31.52182,183011
31.52807,190561
31.53432,192850
31.54058,192350
31.54683,184687
31.55308,184743
31.55935,190410
31.56560,186231
31.57185,183609
31.57812,182722
31.58437,182788
31.59062,181386
31.59688,182174
31.60313,185860
31.60938,190968
31.61565,181684
31.62190,189360
31.62815,182569
31.63442,186584
31.64067,182361
31.64692,180629
31.65318,185089
31.65943,185586
31.66568,186561
31.67195,185107
31.67820,182435
31.68445,184922
31.69072,177895
31.69697,179833
31.70322,177369
31.70947,180343
31.71573,184092
31.72198,181198
31.72823,179657
31.73450,179458
31.74075,184504
31.74700,186504
31.75327,179314
31.75952,186715
31.76577,178662
31.77203,182019
31.77828,178166
31.78453,178552
31.79080,184380
31.79705,186219
31.80330,181451
31.80957,178081
31.81582,183849
31.82207,182244
31.82833,176337
31.83458,186952
31.84083,179023
31.84710,181356
31.85335,176291
31.85960,178271
31.86587,177614
31.87212,177636
31.87837,181064
31.88463,181533
31.89088,174401
31.89713,178615
31.90340,179211
31.90965,183297
31.91590,178940
31.92215,179777
31.92842,183922
31.93467,180543
31.94092,177654
31.94718,178002
31.95343,172860
31.95968,175719
31.96595,180685
31.97220,179343
31.97845,175030
31.98472,178610
31.99097,181499
31.99722,180202
32.00348,181095
32.00973,176313
32.01598,179684
32.02225,176540
32.02850,180743
32.03475,183697
32.04102,176140
32.04727,180053
32.05352,174371
32.05978,177734
32.06603,171062
32.07228,181379
32.07855,176225
32.08480,173576
32.09105,173532
32.09732,175886
32.10357,178441
32.10982,176637
32.11608,175416
32.12233,175056
32.12858,175513
32.13485,170996
32.14110,176022
32.14735,173947
32.15360,176917
32.15987,180577
32.16612,172074
32.17237,179035
32.17863,169000
32.18488,170809
32.19113,177597
32.19740,175092
32.20365,175791
32.20990,174093
32.21617,177848
32.22242,175641
32.22867,172946
32.23493,174787
32.24118,175606
32.24743,178110
32.25370,177818
32.25995,176261
32.26620,174087
32.27247,172382
32.27872,174347
32.28497,174986
32.29123,174122
32.29748,180165
32.30373,174758
32.31000,174408
32.31625,173081
32.32250,171141
32.32877,175102
32.33502,171554
32.34127,173597
32.34753,173913
32.35378,170013
32.36003,171519
32.36628,177160
32.37255,175828
32.37880,171247
32.38505,174136
32.39132,175622
32.39757,175758
32.40382,173907
32.41008,171459
32.41633,174407
32.42258,171491
32.42885,171228
32.43510,168344
32.44135,177106
32.44762,172560
32.45387,173245
32.46012,172793
32.46638,173876
32.47263,168462
32.47888,173480
32.48515,166683
32.49140,171722
32.49765,170793
32.50392,167855
32.51017,174031
32.51642,170679
32.52268,168899
32.52893,168039
32.53518,167133
32.54145,167400
32.54770,173853
32.55395,172385
32.56022,171154
32.56647,173694
32.57272,166589
32.57898,169481
32.58523,175502
32.59148,174295
32.59773,167020
32.60400,174544
32.61025,167924
32.61650,166831
32.62277,173730
32.62902,171597
32.63527,169382
32.64153,172127
32.64778,170108
32.65403,167554
32.66030,169755
32.66655,168688
32.67280,166838
32.67907,169818
32.68532,169622
32.69157,174450
32.69783,168054
32.70408,166131
32.71033,163828
32.71660,173509
32.72285,175854
32.72910,170530
32.73537,173946
32.74162,171871
32.74787,172896
32.75413,170438
32.76038,169908
32.76663,172079
32.77290,170533
32.77915,171183
32.78540,172490
32.79167,168916
32.79792,165324
32.80417,165443
32.81042,168924
32.81668,171751
32.82293,172322
32.82918,167011
32.83545,169638
32.84170,167384
32.84795,169525
32.85422,164290
32.86047,167414
32.86672,169045
32.87298,164942
32.87923,166262
32.88548,163798
32.89175,163767
32.89800,168286
32.90425,164469
32.91052,164193
32.91677,166192
32.92302,170661
32.92928,168615
32.93553,167202
32.94178,166292
32.94805,172727
32.95430,168712
32.96055,167902
32.96682,172165
32.97307,168287
32.97932,172056
32.98558,163624
32.99183,163868
32.99808,164675
33.00435,163399
33.01060,166937
33.01685,169822
33.02312,163012
33.02937,163139
33.03562,165755
33.04187,169937
33.04813,160888
33.05438,166401
33.06063,163122
33.06690,162065
33.07315,170658
33.07940,164943
33.08567,171320
33.09192,164438
33.09817,163492
33.10443,166370
33.11068,169276
33.11693,163023
33.12320,168056
33.12945,164168
33.13570,170295
33.14197,163108
33.14822,164675
33.15447,167833
33.16073,168042
33.16698,168215
33.17323,168742
33.17950,174801
33.18575,172260
33.19200,175775
33.19827,179338
33.20452,177463
33.21077,179310
33.21703,179280
33.22328,173243
33.22953,173703
33.23580,173810
33.24205,168731
33.24830,175472
33.25455,169557
33.26082,168492
33.26707,172517
33.27332,169761
33.27958,163955
33.28583,163441
33.29208,167942
33.29835,162339
33.30460,165207
33.31085,160431
33.31712,166835
33.32337,166651
33.32962,161670
33.33588,164566
33.34213,167249
33.34838,162704
33.35465,164969
33.36090,170077
33.36715,173648
33.37342,175623
33.37967,178176
33.38592,184694
33.39218,189209
33.39843,192675
33.40468,192477
33.41095,193292
33.41720,189724
33.42345,191203
33.42972,191764
33.43597,188729
33.44222,176575
33.44848,174398
33.45473,175496
33.46098,173610
33.46725,165612
33.47350,171301
33.47975,162917
33.48600,166710
33.49227,162995
33.49852,162839
33.50477,163186
33.51103,165190
33.51728,166538
33.52353,161671
33.52980,160005
33.53605,161169
33.54230,165911
33.54857,162843
33.55482,162253
33.56107,164335
33.56733,161341
33.57358,161620
33.57983,162845
33.58610,163100
33.59235,164652
33.59860,166356
33.60487,163922
33.61112,160639
33.61737,164447
33.62363,159723
33.62988,165083
33.63613,161264
33.64240,166020
33.64865,159744
33.65490,158822
33.66117,158901
33.66742,161518
33.67367,161875
33.67993,154851
33.68618,161398
33.69243,165226
33.69868,160772
33.70495,165123
33.71120,156385
33.71745,162116
33.72372,162978
33.72997,162593
33.73622,156946
33.74248,163192
33.74873,159518
33.75498,161029
33.76125,157625
33.76750,162946
33.77375,157139
33.78002,162731
33.78627,158406
33.79252,164078
33.79878,158407
33.80503,161209
33.81128,153933
33.81755,157991
33.82380,156914
33.83005,158108
33.83632,156597
33.84257,156524
33.84882,159614
33.85508,162372
33.86133,163301
33.86758,164051
33.87385,158053
33.88010,157408
33.88635,161623
33.89262,159956
33.89887,159478
33.90512,156720
33.91137,155571
33.91763,156852
33.92388,157428
33.93013,153610
33.93640,155725
33.94265,154127
33.94890,158660
33.95517,158634
33.96142,152443
33.96767,155715
33.97393,153183
33.98018,153629
33.98643,162422
33.99270,155817
33.99895,153973
34.00520,159906
34.01147,160542
34.01772,158908
34.02397,155117
34.03023,158210
34.03648,162479
34.04273,154918
34.04900,156102
34.05525,157384
34.06150,154790
34.06777,154093
34.07402,153041
34.08027,158408
34.08653,154839
34.09278,155611
34.09903,157769
34.10530,158096
34.11155,157790
34.11780,155694
34.12407,151001
34.13032,157202
34.13657,158535
34.14282,156588
34.14908,154466
34.15533,152135
34.16158,155072
34.16785,155375
34.17410,153551
34.18035,153728
34.18662,155363
34.19287,158833
34.19912,159161
34.20538,157494
34.21163,150790
34.21788,149977
34.22415,152516
34.23040,158768
34.23665,150562
34.24292,155158
34.24917,160437
34.25542,160337
34.26168,153203
34.26793,156034
34.27418,156767
34.28045,150413
34.28670,153871
34.29295,157948
34.29922,150970
34.30547,151103
34.31172,156613
34.31798,155100
34.32423,155141
34.33048,157689
34.33675,156713
34.34300,157575
34.34925,151822
34.35550,152237
34.36177,153996
34.36802,152983
34.37427,149838
34.38053,150219
34.38678,148939
34.39303,158879
34.39930,155465
34.40555,152046
34.41180,153968
34.41807,154809
34.42432,155548
34.43057,155121
34.43683,158367
34.44308,151285
34.44933,156995
34.45560,150629
34.46185,151284
34.46810,148498
34.47437,150443
34.48062,151344
34.48687,152326
34.49313,153543
34.49938,148653
34.50563,151912
34.51190,151068
34.51815,147945
34.52440,150320
34.53067,151482
34.53692,153446
34.54317,146975
34.54943,151585
34.55568,152744
34.56193,150877
34.56818,150020
34.57445,152170
34.58070,151087
34.58695,148685
34.59322,152923
34.59947,153065
34.60572,151800
34.61198,153933
34.61823,153220
34.62448,152515
34.63075,155683
34.63700,154360
34.64325,152334
34.64952,149444
34.65577,149793
34.66202,155143
34.66828,154871
34.67453,153449
34.68078,150423
34.68705,157453
34.69330,146952
34.69955,153607
34.70582,156767
34.71207,150151
34.71832,151797
34.72458,150545
34.73083,152206
34.73708,148680
34.74335,151157
34.74960,145734
34.75585,151881
34.76212,150376
34.76837,150744
34.77462,148528
34.78088,149870
34.78713,149144
34.79338,148763
34.79963,151488
34.80590,147532
34.81215,149399
34.81840,149738
34.82467,150588
34.83092,152921
34.83717,145589
34.84343,151240
34.84968,148570
34.85593,145062
34.86220,147518
34.86845,148381
34.87470,148010
34.88097,144515
34.88722,151742
34.89347,149494
34.89973,147922
34.90598,146866
34.91223,147026
34.91850,149366
34.92475,153583
34.93100,148544
34.93727,147842
34.94352,147694
34.94977,147497
34.95603,146583
34.96228,147336
34.96853,150397
34.97480,148477
34.98105,143493
34.98730,146344
34.99357,148546
34.99982,148083
35.00607,149397
35.01232,147871
35.01858,152961
35.02483,144707
35.03108,145697
35.03735,147271
35.04360,151648
35.04985,150739
35.05612,148479
35.06237,145440
35.06862,146999
35.07488,143149
35.08113,150183
35.08738,140683
35.09365,151691
35.09990,148313
35.10615,145512
35.11242,149078
35.11867,145379
35.12492,152548
35.13118,152080
35.13743,149659
35.14368,142736
35.14995,143885
35.15620,145228
35.16245,145511
35.16872,147292
35.17497,144131
35.18122,141832
35.18748,150052
35.19373,144441
35.19998,146822
35.20625,144219
35.21250,149705
35.21875,145688
35.22502,143074
35.23127,147097
35.23752,147453
35.24377,147863
35.25003,149160
35.25628,147441
35.26253,142447
35.26880,144102
35.27505,148346
35.28130,145697
35.28757,143680
35.29382,150028
35.30007,144512
35.30633,142710
35.31258,145335
35.31883,146423
35.32510,145361
35.33135,141794
35.33760,144146
35.34387,148311
35.35012,142467
35.35637,145456
35.36263,145051
35.36888,149906
35.37513,146404
35.38140,146282
35.38765,147206
35.39390,145948
35.40017,144827
35.40642,142960
35.41267,146417
35.41893,142155
35.42518,144622
35.43143,140151
35.43770,144321
35.44395,142906
35.45020,144079
35.45645,142099
35.46272,144687
35.46897,144806
35.47522,147446
35.48148,144277
35.48773,142747
35.49398,143316
35.50025,150125
35.50650,140932
35.51275,144400
35.51902,143433
35.52527,144512
35.53152,149203
35.53778,142964
35.54403,143922
35.55028,148403
35.55655,143981
35.56280,143660
35.56905,142725
35.57532,142358
35.58157,147242
35.58782,146228
35.59408,141635
35.60033,144994
35.60658,145431
35.61285,147163
35.61910,144111
35.62535,141366
35.63162,143790
35.63787,148543
35.64412,142491
35.65038,145329
35.65663,140967
35.66288,144860
35.66915,148673
35.67540,146382
35.68165,142536
35.68790,141809
35.69417,148388
35.70042,146924
35.70667,141632
35.71293,144257
35.71918,144667
35.72543,141817
35.73170,141866
35.73795,139918
35.74420,139975
35.75047,139163
35.75672,141853
35.76297,143133
35.76923,144997
35.77548,139551
35.78173,142271
35.78800,142920
35.79425,139800
35.80050,138830
35.80677,139283
35.81302,139296
35.81927,140966
35.82553,140364
35.83178,139172
35.83803,148086
35.84430,142072
35.85055,139954
35.85680,142290
35.86307,144995
35.86932,142207
35.87557,144047
35.88183,141437
35.88808,144867
35.89433,143703
35.90058,139330
35.90685,138842
35.91310,140608
35.91935,141288
35.92562,141685
35.93187,142822
35.93812,141079
35.94438,141197
35.95063,141934
35.95688,139982
35.96315,140307
35.96940,141760
35.97565,136439
35.98192,139893
35.98817,144584
35.99442,143189
36.00068,139966
36.00693,139552
36.01318,140226
36.01945,140010
36.02570,140948
36.03195,144263
36.03822,137039
36.04447,140868
36.05072,138551
36.05698,137241
36.06323,139757
36.06948,141406
36.07575,137529
36.08200,137536
36.08825,138611
36.09452,141701
36.10077,136856
36.10702,141283
36.11328,140651
36.11953,144976
36.12578,139203
36.13203,139923
36.13830,138111
36.14455,139189
36.15080,140641
36.15707,134978
36.16332,140411
36.16957,139141
36.17583,137812
36.18208,138369
36.18833,138149
36.19460,139155
36.20085,138893
36.20710,142764
36.21337,142333
36.21962,140218
36.22587,138602
36.23213,140883
36.23838,140358
36.24463,139206
36.25090,143831
36.25715,143451
36.26340,142724
36.26967,149174
36.27592,149687
36.28217,154122
36.28843,158679
36.29468,163724
36.30093,168961
36.30720,172533
36.31345,182860
36.31970,187068
36.32597,198826
36.33222,209486
36.33847,215399
36.34472,218541
36.35098,227802
36.35723,233324
36.36348,239115
36.36975,235069
36.37600,239181
36.38225,232243
36.38852,229713
36.39477,221316
36.40102,215886
36.40728,199774
36.41353,193089
36.41978,187941
36.42605,178440
36.43230,170463
36.43855,165965
36.44482,162033
36.45107,161720
36.45732,156180
36.46358,156593
36.46983,149610
36.47608,150636
36.48235,150864
36.48860,153338
36.49485,148390
36.50112,151692
36.50737,146522
36.51362,146292
36.51988,152363
36.52613,147028
36.53238,145639
36.53865,147629
36.54490,143444
36.55115,147069
36.55740,150845
36.56367,143008
36.56992,142166
36.57617,148908
36.58243,145286
36.58868,146240
36.59493,145589
36.60120,143960
36.60745,141908
36.61370,144642
36.61997,149388
36.62622,142292
36.63247,146604
36.63873,145689
36.64498,146838
36.65123,147462
36.65750,150312
36.66375,148910
36.67000,145560
36.67627,143856
36.68252,147186
36.68877,145556
36.69503,147870
36.70128,148682
36.70753,144069
36.71380,145777
36.72005,146923
36.72630,139894
36.73257,146409
36.73882,140283
36.74507,141435
36.75133,144524
36.75758,142323
36.76383,140055
36.77010,141173
36.77635,137051
36.78260,139037
36.78885,138626
36.79512,133376
36.80137,136574
36.80762,138784
36.81388,138891
36.82013,138723
36.82638,139148
36.83265,136575
36.83890,138426
36.84515,138411
36.85142,137282
36.85767,138225
36.86392,136544
36.87018,140534
36.87643,140563
36.88268,136876
36.88895,138667
36.89520,140782
36.90145,137818
36.90772,141288
36.91397,139503
36.92022,134253
36.92648,139094
36.93273,138387
36.93898,138323
36.94525,142357
36.95150,138943
36.95775,137598
36.96402,139740
36.97027,138261
36.97652,138736
36.98278,140674
36.98903,137202
36.99528,135894
37.00153,136180
37.00780,135444
37.01405,137323
37.02030,136877
37.02657,139826
37.03282,134668
37.03907,134321
37.04533,138859
37.05158,140926
37.05783,136773
37.06410,138668
37.07035,139378
37.07660,135921
37.08287,137623
37.08912,136210
37.09537,135886
37.10163,135568
37.10788,137501
37.11413,132429
37.12040,130280
37.12665,137014
37.13290,137280
37.13917,132321
37.14542,136576
37.15167,135609
37.15793,135062
37.16418,134598
37.17043,135663
37.17670,134221
37.18295,133285
37.18920,131874
37.19547,135796
37.20172,137136
37.20797,134220
37.21422,132488
37.22048,134509
37.22673,134475
37.23298,136803
37.23925,132477
37.24550,134074
37.25175,130343
37.25802,132996
37.26427,134105
37.27052,134900
37.27678,137802
37.28303,131600
37.28928,132660
37.29555,132333
37.30180,132623
37.30805,132778
37.31432,138498
37.32057,135665
37.32682,136352
37.33308,132141
37.33933,134221
37.34558,133300
37.35185,135548
37.35810,135914
37.36435,135135
37.37062,135894
37.37687,136916
37.38312,136072
37.38938,133690
37.39563,133732
37.40188,135552
37.40815,137675
37.41440,129962
37.42065,134069
37.42692,132693
37.43317,131436
37.43942,130291
37.44567,135855
37.45193,134478
37.45818,132628
37.46443,132005
37.47070,139364
37.47695,135660
37.48320,136862
37.48947,132505
