D:\MassHunter\GCMS\1\data\metastasis_lineages_3replicates_3runs_10302020\L_plate2_run2_10302020.D Sat Oct 31 04:27:46 2020
Start of data points
5.99327	167961
5.99952	171143
6.00578	178874
6.01203	172820
6.01828	171913
6.02455	163302
6.03080	166169
6.03705	186286
6.04332	204116
6.04957	206771
6.05582	184519
6.06208	199693
6.06833	212454
6.07458	210079
6.08085	185824
6.08710	173321
6.09335	197900
6.09960	386484
6.10587	774990
6.11212	1042670
6.11837	898915
6.12463	533004
6.13088	295461
6.13713	207906
6.14340	199513
6.14965	245977
6.15590	389770
6.16217	659120
6.16842	946482
6.17467	972551
6.18093	704250
6.18718	406837
6.19343	247386
6.19970	193642
6.20595	171418
6.21220	165165
6.21847	157914
6.22472	157701
6.23097	170832
6.23723	176693
6.24348	180140
6.24973	171203
6.25600	172223
6.26225	161208
6.26850	168227
6.27477	182984
6.28102	183641
6.28727	172459
6.29353	183000
6.29978	213336
6.30603	306682
6.31230	517530
6.31855	991945
6.32480	2383799
6.33105	5805719
6.33732	9962986
6.34357	1.136972E+07
6.34982	7184038
6.35608	2441815
6.36233	590734
6.36858	255116
6.37485	215379
6.38110	206667
6.38735	213369
6.39362	221915
6.39987	285846
6.40612	450827
6.41238	643591
6.41863	710231
6.42488	694288
6.43115	847991
6.43740	977001
6.44365	877771
6.44992	889746
6.45617	1850081
6.46242	4758535
6.46868	1.047065E+07
6.47493	1.830905E+07
6.48118	2.607445E+07
6.48745	3.328853E+07
6.49370	3.951092E+07
6.49995	4.426318E+07
6.50622	4.660185E+07
6.51247	4.665246E+07
6.51872	4.604506E+07
6.52498	4.549623E+07
6.53123	3.420322E+07
6.53748	3304391
6.54373	830978
6.55000	806873
6.55625	927823
6.56250	1108178
6.56877	1634260
6.57502	2407847
6.58127	2581788
6.58753	1714417
6.59378	813486
6.60003	415684
6.60630	322529
6.61255	294872
6.61880	281210
6.62507	276238
6.63132	281365
6.63757	286323
6.64383	293100
6.65008	290134
6.65633	284703
6.66260	331566
6.66885	441353
6.67510	520890
6.68137	466994
6.68762	361047
6.69387	303200
6.70013	275821
6.70638	279320
6.71263	301223
6.71890	313628
6.72515	332072
6.73140	340305
6.73767	360632
6.74392	376259
6.75017	374981
6.75642	369017
6.76268	371927
6.76893	378760
6.77518	378048
6.78145	371852
6.78770	380838
6.79395	400487
6.80022	445547
6.80647	495926
6.81272	515046
6.81898	502826
6.82523	489361
6.83148	469170
6.83775	490529
6.84400	553161
6.85025	599359
6.85652	568220
6.86277	525583
6.86902	520649
6.87528	599809
6.88153	789698
6.88778	954330
6.89405	893826
6.90030	705487
6.90655	563970
6.91282	502458
6.91907	467083
6.92532	455600
6.93158	447137
6.93783	438719
6.94408	441594
6.95035	438749
6.95660	427055
6.96285	406507
6.96912	391245
6.97537	378323
6.98162	369965
6.98787	372971
6.99413	340941
7.00038	326479
7.00663	313203
7.01290	325956
7.01915	383484
7.02540	605174
7.03167	1328244
7.03792	3253472
7.04417	6258737
7.05043	8611302
7.05668	7607802
7.06293	4100538
7.06920	1460415
7.07545	479990
7.08170	259601
7.08797	209110
7.09422	189120
7.10047	186059
7.10673	177833
7.11298	163456
7.11923	156483
7.12550	156151
7.13175	173374
7.13800	249241
7.14427	415526
7.15052	582515
7.15677	594849
7.16303	404316
7.16928	239676
7.17553	162274
7.18180	146708
7.18805	144322
7.19430	156893
7.20055	211030
7.20682	252247
7.21307	234729
7.21932	185970
7.22558	154435
7.23183	146830
7.23808	163871
7.24435	197222
7.25060	290418
7.25685	497689
7.26312	766575
7.26937	860414
7.27562	683226
7.28188	412528
7.28813	241695
7.29438	179420
7.30065	162349
7.30690	159004
7.31315	153832
7.31942	135061
7.32567	132338
7.33192	125291
7.33818	127391
7.34443	121397
7.35068	120578
7.35695	120505
7.36320	116468
7.36945	114717
7.37572	126384
7.38197	129179
7.38822	150644
7.39448	162388
7.40073	152440
7.40698	151391
7.41323	174891
7.41950	238281
7.42575	312826
7.43200	350799
7.43827	321396
7.44452	248031
7.45077	188779
7.45703	155114
7.46328	166861
7.46953	170800
7.47580	180336
7.48205	180969
7.48830	204269
7.49457	243818
7.50082	321685
7.50707	390233
7.51333	362044
7.51958	262857
7.52583	169578
7.53210	132856
7.53835	125999
7.54460	158922
7.55087	442842
7.55712	1749527
7.56337	5623058
7.56963	1.281866E+07
7.57588	2.190896E+07
7.58213	2.789014E+07
7.58840	2.67041E+07
7.59465	1.606786E+07
7.60090	6268063
7.60717	3212496
7.61342	2486928
7.61967	1742393
7.62593	1101032
7.63218	699148
7.63843	454677
7.64468	317753
7.65095	240315
7.65720	205954
7.66345	202826
7.66972	239917
7.67597	330368
7.68222	432588
7.68848	473543
7.69473	371102
7.70098	256215
7.70725	224611
7.71350	274554
7.71975	358528
7.72602	398669
7.73227	361157
7.73852	296099
7.74478	244722
7.75103	201573
7.75728	163034
7.76355	152798
7.76980	147399
7.77605	155550
7.78232	175165
7.78857	171953
7.79482	161857
7.80108	157197
7.80733	152978
7.81358	150167
7.81985	180068
7.82610	252378
7.83235	311043
7.83862	317894
7.84487	270695
7.85112	231288
7.85737	232409
7.86363	286613
7.86988	311931
7.87613	284678
7.88240	235408
7.88865	196816
7.89490	175069
7.90117	173430
7.90742	179928
7.91367	192540
7.91993	200485
7.92618	188788
7.93243	179418
7.93870	180990
7.94495	201531
7.95120	276987
7.95747	361470
7.96372	368087
7.96997	313615
7.97623	274710
7.98248	301008
7.98873	408215
7.99500	678564
8.00125	943685
8.00750	1220133
8.01377	1646517
8.02002	2326189
8.02627	2526096
8.03253	1963464
8.03878	1197542
8.04503	883121
8.05130	900528
8.05755	937848
8.06380	829498
8.07007	578580
8.07632	364263
8.08257	343822
8.08882	472070
8.09508	621395
8.10133	735145
8.10758	849913
8.11385	1120674
8.12010	1450598
8.12635	1327604
8.13262	819584
8.13887	422466
8.14512	253389
8.15138	196774
8.15763	176295
8.16388	167369
8.17015	167030
8.17640	159288
8.18265	149145
8.18892	144030
8.19517	149409
8.20142	148594
8.20768	145438
8.21393	143354
8.22018	168872
8.22645	230267
8.23270	363000
8.23895	462796
8.24522	447317
8.25147	338614
8.25772	255751
8.26398	222231
8.27023	198631
8.27648	204580
8.28275	219520
8.28900	239614
8.29525	230537
8.30152	203883
8.30777	158767
8.31402	133712
8.32027	121963
8.32653	123541
8.33278	132802
8.33903	133320
8.34530	135010
8.35155	134576
8.35780	135097
8.36407	144377
8.37032	144487
8.37657	143602
8.38283	138154
8.38908	136860
8.39533	181995
8.40160	337831
8.40785	600148
8.41410	759499
8.42037	649034
8.42662	385083
8.43287	233952
8.43913	185250
8.44538	198294
8.45163	206254
8.45790	214238
8.46415	201036
8.47040	182774
8.47667	166633
8.48292	168637
8.48917	160169
8.49543	157246
8.50168	165106
8.50793	180219
8.51420	182049
8.52045	160005
8.52670	149144
8.53295	130327
8.53922	128266
8.54547	124259
8.55172	128568
8.55798	173705
8.56423	282385
8.57048	476208
8.57675	788372
8.58300	1277061
8.58925	1870688
8.59552	2134423
8.60177	1879086
8.60802	1934252
8.61428	3820042
8.62053	8523727
8.62678	1.409465E+07
8.63305	1.597821E+07
8.63930	1.215034E+07
8.64555	5434256
8.65182	1443801
8.65807	407608
8.66432	249267
8.67058	221808
8.67683	222041
8.68308	202861
8.68935	196479
8.69560	205934
8.70185	210474
8.70812	228335
8.71437	243452
8.72062	238076
8.72688	220459
8.73313	185713
8.73938	180798
8.74563	208045
8.75190	205334
8.75815	182508
8.76440	154102
8.77067	127713
8.77692	119150
8.78317	110053
8.78943	102528
8.79568	95540
8.80193	90040
8.80820	83187
8.81445	84263
8.82070	86738
8.82697	113251
8.83322	257896
8.83947	749051
8.84573	2043158
8.85198	4097108
8.85823	6311659
8.86450	7139985
8.87075	6419448
8.87700	5080598
8.88327	4562605
8.88952	4584619
8.89577	3617555
8.90203	1700946
8.90828	627896
8.91453	283806
8.92080	176704
8.92705	141204
8.93330	124266
8.93957	116293
8.94582	121052
8.95207	142876
8.95833	177593
8.96458	218695
8.97083	253368
8.97708	264825
8.98335	274027
8.98960	306733
8.99585	397667
9.00212	555916
9.00837	716972
9.01462	757752
9.02088	625941
9.02713	412785
9.03338	367474
9.03965	508351
9.04590	724026
9.05215	741034
9.05842	538164
9.06467	322201
9.07092	198845
9.07718	156761
9.08343	143568
9.08968	149781
9.09595	158006
9.10220	169203
9.10845	157368
9.11472	135105
9.12097	114162
9.12722	110269
9.13348	106433
9.13973	121995
9.14598	132269
9.15225	160556
9.15850	200138
9.16475	252433
9.17102	271894
9.17727	269516
9.18352	289852
9.18977	344475
9.19603	383561
9.20228	329124
9.20853	237946
9.21480	157631
9.22105	120205
9.22730	108273
9.23357	126396
9.23982	161540
9.24607	211406
9.25233	240512
9.25858	209977
9.26483	155405
9.27110	109259
9.27735	94628
9.28360	93112
9.28987	112509
9.29612	150992
9.30237	213419
9.30863	263637
9.31488	292813
9.32113	323282
9.32740	326491
9.33365	353362
9.33990	498336
9.34617	799576
9.35242	1047885
9.35867	1005224
9.36493	675785
9.37118	410079
9.37743	615409
9.38370	2087185
9.38995	5733633
9.39620	1.060108E+07
9.40245	1.299938E+07
9.40872	1.05514E+07
9.41497	5343190
9.42122	1747317
9.42748	759656
9.43373	1480770
9.43998	5020679
9.44625	1.248683E+07
9.45250	2.172332E+07
9.45875	2.654128E+07
9.46502	2.400973E+07
9.47127	1.435499E+07
9.47752	5025674
9.48378	1328156
9.49003	450537
9.49628	247610
9.50255	183663
9.50880	168232
9.51505	168100
9.52132	177974
9.52757	184372
9.53382	178475
9.54008	175844
9.54633	166136
9.55258	156884
9.55885	144136
9.56510	145541
9.57135	163063
9.57762	181663
9.58387	190118
9.59012	177685
9.59638	173027
9.60263	173285
9.60888	206766
9.61515	248228
9.62140	246142
9.62765	202383
9.63390	152833
9.64017	131690
9.64642	123689
9.65267	131056
9.65893	131892
9.66518	120409
9.67143	141930
9.67770	357944
9.68395	1279610
9.69020	3878511
9.69647	8305027
9.70272	1.143351E+07
9.70897	1.080305E+07
9.71523	6459582
9.72148	2647016
9.72773	1717599
9.73400	2478646
9.74025	3264018
9.74650	3123718
9.75277	1933212
9.75902	799905
9.76527	316266
9.77153	219604
9.77778	159865
9.78403	146881
9.79030	128456
9.79655	118382
9.80280	112271
9.80907	110167
9.81532	105827
9.82157	129349
9.82783	108625
9.83408	111581
9.84033	134724
9.84658	187575
9.85285	387381
9.85910	1470144
9.86535	4546778
9.87162	7986722
9.87787	1.234342E+07
9.88412	1.213528E+07
9.89038	8578801
9.89663	3626382
9.90288	1670744
9.90915	1670065
9.91540	1814639
9.92165	1323171
9.92792	687445
9.93417	331582
9.94042	208941
9.94668	190351
9.95293	228093
9.95918	331974
9.96545	595726
9.97170	980689
9.97795	1421067
9.98422	1981085
9.99047	2653825
9.99672	3154223
10.00298	2736671
10.00923	1818393
10.01548	923487
10.02175	486964
10.02800	331812
10.03425	251435
10.04052	213105
10.04677	210882
10.05302	213961
10.05927	195506
10.06553	173223
10.07178	155857
10.07803	145013
10.08430	152130
10.09055	176315
10.09680	201669
10.10307	215930
10.10932	217654
10.11557	203568
10.12183	189426
10.12808	170441
10.13433	152262
10.14060	143304
10.14685	138150
10.15310	137130
10.15937	141820
10.16562	141501
10.17187	143905
10.17813	153838
10.18438	168007
10.19063	182297
10.19690	171732
10.20315	165733
10.20940	151365
10.21567	170426
10.22192	261980
10.22817	444456
10.23443	669365
10.24068	820388
10.24693	819986
10.25320	648031
10.25945	458940
10.26570	336427
10.27197	271365
10.27822	237921
10.28447	241599
10.29072	307966
10.29698	352725
10.30323	351918
10.30948	287055
10.31575	222145
10.32200	199853
10.32825	229262
10.33452	306774
10.34077	386896
10.34702	376254
10.35328	271839
10.35953	208756
10.36578	183889
10.37205	171030
10.37830	164815
10.38455	156889
10.39082	146182
10.39707	136919
10.40332	125124
10.40958	119942
10.41583	125578
10.42208	135559
10.42835	150721
10.43460	159984
10.44085	162994
10.44712	169381
10.45337	172106
10.45962	178490
10.46588	179295
10.47213	204930
10.47838	299213
10.48465	473813
10.49090	631590
10.49715	601959
10.50342	421548
10.50967	259255
10.51592	173936
10.52217	150003
10.52843	176574
10.53468	220788
10.54093	266128
10.54720	282407
10.55345	244748
10.55970	208143
10.56597	201854
10.57222	208788
10.57847	234562
10.58473	260944
10.59098	256405
10.59723	271866
10.60350	499683
10.60975	1555390
10.61600	4472143
10.62227	9245619
10.62852	1.307448E+07
10.63477	1.291055E+07
10.64103	7876548
10.64728	3062559
10.65353	901104
10.65980	332002
10.66605	222367
10.67230	218116
10.67857	231661
10.68482	227433
10.69107	213174
10.69733	180864
10.70358	160167
10.70983	149249
10.71610	155272
10.72235	166589
10.72860	183165
10.73485	194109
10.74112	201335
10.74737	197477
10.75362	190564
10.75988	187024
10.76613	195940
10.77238	201163
10.77865	214042
10.78490	215504
10.79115	206195
10.79742	192909
10.80367	208802
10.80992	266172
10.81618	404746
10.82243	520298
10.82868	511622
10.83495	379275
10.84120	255351
10.84745	190288
10.85372	184162
10.85997	194049
10.86622	201925
10.87248	204047
10.87873	199650
10.88498	194100
10.89125	199620
10.89750	208847
10.90375	223817
10.91002	247491
10.91627	237430
10.92252	216496
10.92878	216050
10.93503	220744
10.94128	201454
10.94755	176258
10.95380	168755
10.96005	219065
10.96630	519881
10.97257	1679700
10.97882	4765602
10.98507	1.052204E+07
10.99133	1.776966E+07
10.99758	2.164615E+07
11.00383	1.830066E+07
11.01010	1.017048E+07
11.01635	3438531
11.02260	867909
11.02887	317635
11.03512	273121
11.04137	297173
11.04763	312676
11.05388	343935
11.06013	380711
11.06640	409084
11.07265	353076
11.07890	264092
11.08517	201760
11.09142	180820
11.09767	196178
11.10393	214084
11.11018	228681
11.11643	242037
11.12270	252156
11.12895	264553
11.13520	262047
11.14147	261130
11.14772	262474
11.15397	297597
11.16023	418441
11.16648	617514
11.17273	764075
11.17898	699664
11.18525	502109
11.19150	308470
11.19775	214087
11.20402	204538
11.21027	234268
11.21652	279809
11.22278	307332
11.22903	293458
11.23528	265154
11.24155	242347
11.24780	255259
11.25405	281260
11.26032	295505
11.26657	284031
11.27282	264865
11.27908	293457
11.28533	311746
11.29158	298485
11.29785	255391
11.30410	217431
11.31035	207266
11.31662	259514
11.32287	396642
11.32912	631088
11.33538	772025
11.34163	694581
11.34788	459722
11.35415	262743
11.36040	172169
11.36665	162251
11.37292	164040
11.37917	169912
11.38542	151193
11.39167	153171
11.39793	153619
11.40418	162289
11.41043	166539
11.41670	169936
11.42295	170476
11.42920	182444
11.43547	241003
11.44172	390583
11.44797	668233
11.45423	907361
11.46048	929175
11.46673	694119
11.47300	419054
11.47925	285278
11.48550	240604
11.49177	227504
11.49802	202853
11.50427	193268
11.51053	179373
11.51678	171665
11.52303	164255
11.52930	166347
11.53555	163249
11.54180	172396
11.54807	174467
11.55432	173774
11.56057	169937
11.56683	152621
11.57308	146799
11.57933	151081
11.58560	155158
11.59185	160720
11.59810	171081
11.60437	172992
11.61062	164835
11.61687	163968
11.62312	167273
11.62938	174652
11.63563	171790
11.64188	180367
11.64815	200787
11.65440	219950
11.66065	245253
11.66692	237869
11.67317	221090
11.67942	195574
11.68568	181729
11.69193	181372
11.69818	189254
11.70445	223821
11.71070	274008
11.71695	348659
11.72322	398904
11.72947	377719
11.73572	309698
11.74198	262999
11.74823	235453
11.75448	219716
11.76075	232481
11.76700	255869
11.77325	284229
11.77952	286225
11.78577	285624
11.79202	270344
11.79828	273321
11.80453	271030
11.81078	254170
11.81705	243135
11.82330	238215
11.82955	283975
11.83580	421204
11.84207	590942
11.84832	665601
11.85457	570905
11.86083	411123
11.86708	297556
11.87333	240117
11.87960	247484
11.88585	308041
11.89210	415887
11.89837	497060
11.90462	488158
11.91087	415924
11.91713	329742
11.92338	272584
11.92963	251829
11.93590	283583
11.94215	446119
11.94840	930630
11.95467	2134304
11.96092	4207577
11.96717	6600861
11.97343	7391749
11.97968	5487107
11.98593	2600612
11.99220	1023561
11.99845	569743
12.00470	537956
12.01097	550159
12.01722	502749
12.02347	440395
12.02973	416659
12.03598	463150
12.04223	603613
12.04848	857963
12.05475	1085993
12.06100	1213052
12.06725	1093325
12.07352	791248
12.07977	569220
12.08602	482350
12.09228	464245
12.09853	484748
12.10478	465414
12.11105	405767
12.11730	342754
12.12355	287192
12.12982	265717
12.13607	256870
12.14232	249871
12.14858	232837
12.15483	231207
12.16108	217570
12.16735	219132
12.17360	225313
12.17985	237963
12.18612	277974
12.19237	346220
12.19862	473751
12.20488	696319
12.21113	1097265
12.21738	1720972
12.22365	2277082
12.22990	2395567
12.23615	1935991
12.24242	1248864
12.24867	899254
12.25492	944231
12.26118	1368927
12.26743	1988876
12.27368	2439746
12.27993	2499857
12.28620	1964570
12.29245	1196907
12.29870	609570
12.30497	336982
12.31122	244564
12.31747	211471
12.32373	196579
12.32998	196175
12.33623	215289
12.34250	253755
12.34875	304293
12.35500	347543
12.36127	361490
12.36752	343909
12.37377	325410
12.38003	325529
12.38628	391221
12.39253	473078
12.39880	481018
12.40505	414711
12.41130	327222
12.41757	279516
12.42382	261841
12.43007	286273
12.43633	338187
12.44258	379887
12.44883	353388
12.45510	308005
12.46135	278458
12.46760	281373
12.47387	360437
12.48012	559821
12.48637	913859
12.49262	1378049
12.49888	1707874
12.50513	1647039
12.51138	1118300
12.51765	614632
12.52390	336030
12.53015	247737
12.53642	252755
12.54267	288529
12.54892	328551
12.55518	327088
12.56143	302879
12.56768	320670
12.57395	483057
12.58020	863703
12.58645	1559097
12.59272	2315651
12.59897	2515491
12.60522	2214091
12.61148	1970717
12.61773	2171985
12.62398	3067378
12.63025	4498556
12.63650	6220310
12.64275	8507599
12.64902	1.195099E+07
12.65527	1.683255E+07
12.66152	2.270659E+07
12.66778	2.807791E+07
12.67403	3.199818E+07
12.68028	3.220152E+07
12.68655	2.647783E+07
12.69280	1.381909E+07
12.69905	3679730
12.70530	963058
12.71157	692752
12.71782	885405
12.72407	1057560
12.73033	1061953
12.73658	978865
12.74283	960657
12.74910	908694
12.75535	791561
12.76160	665782
12.76787	577891
12.77412	494589
12.78037	453204
12.78663	429657
12.79288	444207
12.79913	435472
12.80540	410575
12.81165	371720
12.81790	341131
12.82417	356588
12.83042	380715
12.83667	383977
12.84293	373510
12.84918	338693
12.85543	325451
12.86170	325835
12.86795	331547
12.87420	333309
12.88047	359405
12.88672	455073
12.89297	646953
12.89923	908626
12.90548	1013518
12.91173	972383
12.91800	839884
12.92425	674318
12.93050	509192
12.93675	370895
12.94302	298398
12.94927	270954
12.95552	258047
12.96178	252190
12.96803	237465
12.97428	229257
12.98055	234010
12.98680	250243
12.99305	278148
12.99932	311099
13.00557	329724
13.01182	350448
13.01808	389934
13.02433	451661
13.03058	598007
13.03685	763636
13.04310	836561
13.04935	712249
13.05562	532563
13.06187	436008
13.06812	555484
13.07438	1036871
13.08063	2028467
13.08688	3401624
13.09315	3935546
13.09940	3249829
13.10565	1941181
13.11192	1058379
13.11817	649172
13.12442	471562
13.13068	389426
13.13693	359027
13.14318	368078
13.14943	368849
13.15570	355720
13.16195	335234
13.16820	317914
13.17447	296772
13.18072	267936
13.18697	246723
13.19323	236910
13.19948	239175
13.20573	239901
13.21200	244419
13.21825	252760
13.22450	280299
13.23077	301059
13.23702	337754
13.24327	358555
13.24953	360101
13.25578	345687
13.26203	369033
13.26830	383476
13.27455	375972
13.28080	357072
13.28707	381444
13.29332	482989
13.29957	705270
13.30583	1115105
13.31208	1618054
13.31833	1785930
13.32460	1422583
13.33085	828298
13.33710	456138
13.34337	337883
13.34962	332311
13.35587	345513
13.36213	343838
13.36838	318558
13.37463	300815
13.38088	280097
13.38715	272018
13.39340	251664
13.39965	246994
13.40592	247727
13.41217	254750
13.41842	267240
13.42468	296864
13.43093	341214
13.43718	396997
13.44345	424233
13.44970	415644
13.45595	382037
13.46222	326988
13.46847	291104
13.47472	282725
13.48098	284465
13.48723	283807
13.49348	293378
13.49975	294306
13.50600	294442
13.51225	299102
13.51852	310467
13.52477	334081
13.53102	351475
13.53728	376144
13.54353	437063
13.54978	598841
13.55605	819040
13.56230	930942
13.56855	867906
13.57482	672555
13.58107	538361
13.58732	531288
13.59357	657618
13.59983	919921
13.60608	1147536
13.61233	1227859
13.61860	1101360
13.62485	865417
13.63110	667220
13.63737	534136
13.64362	435672
13.64987	398137
13.65613	391850
13.66238	389146
13.66863	379349
13.67490	368541
13.68115	393295
13.68740	411428
13.69367	447115
13.69992	463704
13.70617	444842
13.71243	404970
13.71868	370829
13.72493	352934
13.73120	358895
13.73745	359463
13.74370	370650
13.74997	411430
13.75622	547868
13.76247	848306
13.76873	1226069
13.77498	1347598
13.78123	1098302
13.78750	781824
13.79375	643944
13.80000	835038
13.80627	1613531
13.81252	3227425
13.81877	6024263
13.82502	1.080737E+07
13.83128	1.692444E+07
13.83753	2.419619E+07
13.84378	2.928875E+07
13.85005	2.881075E+07
13.85630	1.805576E+07
13.86255	5767409
13.86882	1221106
13.87507	437805
13.88132	416350
13.88758	630189
13.89383	1168854
13.90008	2315268
13.90635	4587396
13.91260	7721126
13.91885	1.046165E+07
13.92512	1.03244E+07
13.93137	6864843
13.93762	2867054
13.94388	915924
13.95013	339199
13.95638	235385
13.96265	225180
13.96890	223097
13.97515	222965
13.98142	230079
13.98767	232063
13.99392	241210
14.00018	244445
14.00643	275139
14.01268	317895
14.01895	347827
14.02520	328496
14.03145	274884
14.03770	223221
14.04397	190427
14.05022	192748
14.05647	209174
14.06273	232796
14.06898	260745
14.07523	273605
14.08150	277905
14.08775	253427
14.09400	223232
14.10027	194074
14.10652	178134
14.11277	173894
14.11903	180059
14.12528	190126
14.13153	196875
14.13780	197907
14.14405	183754
14.15030	178935
14.15657	178139
14.16282	188942
14.16907	192900
14.17533	183612
14.18158	171613
14.18783	170108
14.19410	175808
14.20035	209791
14.20660	271681
14.21287	421835
14.21912	699092
14.22537	1144454
14.23163	1516933
14.23788	1505007
14.24413	1108436
14.25040	646163
14.25665	347873
14.26290	285189
14.26915	390377
14.27542	618353
14.28167	771570
14.28792	742359
14.29418	547891
14.30043	373055
14.30668	283935
14.31295	272448
14.31920	325642
14.32545	447952
14.33172	560590
14.33797	552396
14.34422	452873
14.35048	322492
14.35673	253084
14.36298	228295
14.36925	223704
14.37550	228497
14.38175	241643
14.38802	249237
14.39427	289563
14.40052	414044
14.40678	800607
14.41303	1803259
14.41928	3713390
14.42555	5991174
14.43180	6779604
14.43805	5318819
14.44432	3166097
14.45057	1673582
14.45682	1152940
14.46308	999718
14.46933	966409
14.47558	977084
14.48183	1046816
14.48810	994816
14.49435	809590
14.50060	561316
14.50687	391665
14.51312	301145
14.51937	282150
14.52563	298596
14.53188	330573
14.53813	331135
14.54440	304105
14.55065	269711
14.55690	266253
14.56317	262362
14.56942	262249
14.57567	272791
14.58193	266156
14.58818	246636
14.59443	231921
14.60070	219268
14.60695	221040
14.61320	231524
14.61947	234542
14.62572	240140
14.63197	252687
14.63823	298077
14.64448	412278
14.65073	549679
14.65700	585175
14.66325	510418
14.66950	409612
14.67577	339267
14.68202	319972
14.68827	343847
14.69452	428287
14.70078	565578
14.70703	672785
14.71328	697269
14.71955	706040
14.72580	851661
14.73205	1253287
14.73832	1902813
14.74457	2449520
14.75082	2635749
14.75708	2580336
14.76333	2641721
14.76958	2408158
14.77585	1700443
14.78210	907865
14.78835	455955
14.79462	350416
14.80087	445729
14.80712	728720
14.81338	1068946
14.81963	1109007
14.82588	763402
14.83215	442140
14.83840	245806
14.84465	178110
14.85092	171121
14.85717	194134
14.86342	246307
14.86968	300384
14.87593	310521
14.88218	278967
14.88845	233498
14.89470	206218
14.90095	201674
14.90722	263080
14.91347	387958
14.91972	582887
14.92597	728519
14.93223	689914
14.93848	582702
14.94473	455554
14.95100	359441
14.95725	364962
14.96350	507618
14.96977	933234
14.97602	1719279
14.98227	2453171
14.98853	2584383
14.99478	1903110
15.00103	1039301
15.00730	501358
15.01355	292304
15.01980	223039
15.02607	208235
15.03232	191157
15.03857	200629
15.04483	218752
15.05108	241642
15.05733	260880
15.06360	263499
15.06985	253257
15.07610	239842
15.08237	230472
15.08862	241848
15.09487	278420
15.10113	318318
15.10738	348518
15.11363	368741
15.11990	411450
15.12615	492900
15.13240	600741
15.13865	738426
15.14492	850051
15.15117	932685
15.15742	1005026
15.16368	1378282
15.16993	2385308
15.17618	3672554
15.18245	4162749
15.18870	3180318
15.19495	1736079
15.20122	789509
15.20747	419696
15.21372	286701
15.21998	217061
15.22623	175724
15.23248	164676
15.23875	165336
15.24500	173955
15.25125	187997
15.25752	203794
15.26377	210458
15.27002	198671
15.27628	185738
15.28253	175512
15.28878	169352
15.29505	161463
15.30130	164832
15.30755	168516
15.31382	194255
15.32007	234332
15.32632	281681
15.33258	296857
15.33883	267745
15.34508	214949
15.35133	189816
15.35760	200388
15.36385	218362
15.37010	241730
15.37637	228332
15.38262	205195
15.38887	181635
15.39513	169081
15.40138	158014
15.40763	144280
15.41390	151548
15.42015	157989
15.42640	202390
15.43267	281498
15.43892	386011
15.44517	529543
15.45143	771518
15.45768	953230
15.46393	859044
15.47020	643542
15.47645	405726
15.48270	258630
15.48897	193858
15.49522	178753
15.50147	196630
15.50773	243886
15.51398	358906
15.52023	726623
15.52650	1614033
15.53275	3095695
15.53900	4782598
15.54527	6578308
15.55152	8801939
15.55777	1.166412E+07
15.56403	1.284595E+07
15.57028	8886710
15.57653	3502724
15.58278	1006699
15.58905	432155
15.59530	327866
15.60155	316226
15.60782	309462
15.61407	324179
15.62032	318864
15.62658	301141
15.63283	282332
15.63908	280092
15.64535	263673
15.65160	232490
15.65785	208944
15.66412	198138
15.67037	195771
15.67662	201340
15.68288	216947
15.68913	221660
15.69538	226074
15.70165	230720
15.70790	230852
15.71415	214092
15.72042	186941
15.72667	177239
15.73292	175316
15.73918	180388
15.74543	199741
15.75168	215342
15.75795	206458
15.76420	191107
15.77045	163521
15.77672	148454
15.78297	134062
15.78922	136841
15.79547	137526
15.80173	143897
15.80798	143346
15.81423	149112
15.82050	152746
15.82675	176579
15.83300	230047
15.83927	354525
15.84552	551725
15.85177	733476
15.85803	711839
15.86428	536958
15.87053	325131
15.87680	210474
15.88305	186099
15.88930	184389
15.89557	192020
15.90182	175359
15.90807	163986
15.91433	149692
15.92058	146149
15.92683	143011
15.93310	151299
15.93935	162010
15.94560	181652
15.95187	263940
15.95812	424729
15.96437	671697
15.97063	888509
15.97688	881253
15.98313	656289
15.98940	386389
15.99565	208779
16.00190	152884
16.00815	165749
16.01442	222214
16.02067	297742
16.02692	391408
16.03318	467544
16.03943	530905
16.04568	668999
16.05195	822199
16.05820	888895
16.06445	785891
16.07072	569138
16.07697	515697
16.08322	605383
16.08948	785726
16.09573	880505
16.10198	852064
16.10825	831519
16.11450	1071679
16.12075	1754579
16.12702	2593805
16.13327	3080542
16.13952	2566691
16.14578	1496938
16.15203	713267
16.15828	358561
16.16455	262048
16.17080	252917
16.17705	246492
16.18332	245470
16.18957	257959
16.19582	303358
16.20208	364638
16.20833	328781
16.21458	268364
16.22085	239226
16.22710	331300
16.23335	568775
16.23960	834544
16.24587	902932
16.25212	738048
16.25837	456975
16.26463	288120
16.27088	212908
16.27713	188836
16.28340	179141
16.28965	176863
16.29590	207240
16.30217	292452
16.30842	410500
16.31467	490357
16.32093	461809
16.32718	348237
16.33343	248683
16.33970	203833
16.34595	182923
16.35220	179784
16.35847	167796
16.36472	168372
16.37097	168929
16.37723	156974
16.38348	152548
16.38973	152603
16.39600	158420
16.40225	152394
16.40850	157003
16.41477	159572
16.42102	158555
16.42727	176581
16.43353	251739
16.43978	429466
16.44603	765725
16.45228	1111917
16.45855	1140107
16.46480	878920
16.47105	613434
16.47732	463291
16.48357	376019
16.48982	298636
16.49608	254177
16.50233	247200
16.50858	266703
16.51485	324751
16.52110	429584
16.52735	521144
16.53362	536290
16.53987	484435
16.54612	401519
16.55238	346012
16.55863	308468
16.56488	280194
16.57115	259513
16.57740	246217
16.58365	240536
16.58992	238780
16.59617	251630
16.60242	248097
16.60868	245038
16.61493	245617
16.62118	265803
16.62745	278799
16.63370	300804
16.63995	326123
16.64622	363021
16.65247	385321
16.65872	383240
16.66498	333646
16.67123	290111
16.67748	274749
16.68373	289675
16.69000	298640
16.69625	301699
16.70250	276751
16.70877	246488
16.71502	227612
16.72127	216570
16.72753	217473
16.73378	226203
16.74003	242118
16.74630	284308
16.75255	372269
16.75880	555989
16.76507	1024277
16.77132	2097474
16.77757	3955417
16.78383	6109363
16.79008	7187494
16.79633	6390537
16.80260	5127255
16.80885	4261277
16.81510	4478543
16.82137	4682740
16.82762	5480426
16.83387	7227365
16.84013	9708667
16.84638	1.105819E+07
16.85263	1.074424E+07
16.85890	8177033
16.86515	4881313
16.87140	3331715
16.87767	3354357
16.88392	4078833
16.89017	5339976
16.89642	6051358
16.90268	5695666
16.90893	4768473
16.91518	3423142
16.92145	2562756
16.92770	2384637
16.93395	2740404
16.94022	3153913
16.94647	3167818
16.95272	3228528
16.95898	3411844
16.96523	3491275
16.97148	3087108
16.97775	2196199
16.98400	1459876
16.99025	971050
16.99652	806933
17.00277	854530
17.00902	1333173
17.01528	2808556
17.02153	5718511
17.02778	1.082089E+07
17.03405	1.650088E+07
17.04030	2.193138E+07
17.04655	2.801334E+07
17.05282	3.595214E+07
17.05907	4.387765E+07
17.06532	4.853841E+07
17.07158	5.026537E+07
17.07783	4.944606E+07
17.08408	4.724372E+07
17.09035	4.389982E+07
17.09660	4.162716E+07
17.10285	4.05898E+07
17.10912	4.197485E+07
17.11537	4.161506E+07
17.12162	1.023522E+07
17.12787	8080834
17.13413	7708867
17.14038	6667364
17.14663	5724853
17.15290	7048023
17.15915	1.244492E+07
17.16540	2.109566E+07
17.17167	3.132085E+07
17.17792	3.983404E+07
17.18417	4.038186E+07
17.19043	2.993673E+07
17.19668	1.10164E+07
17.20293	3225571
17.20920	2048667
17.21545	2480902
17.22170	3253900
17.22797	4579817
17.23422	7195264
17.24047	1.310733E+07
17.24673	2.272763E+07
17.25298	3.382497E+07
17.25923	4.19092E+07
17.26550	4.520782E+07
17.27175	4.046184E+07
17.27800	2.186156E+07
17.28427	8127273
17.29052	6487062
17.29677	9467442
17.30303	1.232703E+07
17.30928	1.204065E+07
17.31553	8994509
17.32180	4522440
17.32805	1965821
17.33430	1102634
17.34055	848822
17.34682	745152
17.35307	670423
17.35932	613532
17.36558	584440
17.37183	557876
17.37808	548866
17.38435	560946
17.39060	575704
17.39685	650151
17.40312	773808
17.40937	937321
17.41562	1165387
17.42188	1241509
17.42813	1239920
17.43438	1153266
17.44065	1196228
17.44690	1639367
17.45315	2500733
17.45942	3456527
17.46567	3609213
17.47192	2748531
17.47818	1655901
17.48443	949940
17.49068	711548
17.49695	652429
17.50320	661831
17.50945	763190
17.51572	1031082
17.52197	1327607
17.52822	1428908
17.53448	1285886
17.54073	924089
17.54698	676513
17.55325	616854
17.55950	802053
17.56575	1469689
17.57200	3005250
17.57827	5649682
17.58452	8841277
17.59077	9685920
17.59703	6964597
17.60328	3609430
17.60953	1499469
17.61580	820982
17.62205	804511
17.62830	882817
17.63457	866705
17.64082	693407
17.64707	538456
17.65333	446545
17.65958	404594
17.66583	377472
17.67210	365328
17.67835	360070
17.68460	370911
17.69087	394760
17.69712	413778
17.70337	426612
17.70963	440363
17.71588	404936
17.72213	364865
17.72840	339753
17.73465	333922
17.74090	350046
17.74717	389095
17.75342	417224
17.75967	438816
17.76593	468324
17.77218	548283
17.77843	705107
17.78468	946920
17.79095	1360442
17.79720	2161509
17.80345	3835870
17.80972	5750333
17.81597	7629920
17.82222	7887290
17.82848	6137235
17.83473	3692610
17.84098	1824546
17.84725	1092521
17.85350	846312
17.85975	1021257
17.86602	2186897
17.87227	4804301
17.87852	8537189
17.88478	1.14227E+07
17.89103	9601085
17.89728	5608682
17.90355	2277246
17.90980	865113
17.91605	503090
17.92232	419729
17.92857	389421
17.93482	374735
17.94108	352963
17.94733	347868
17.95358	345674
17.95985	350920
17.96610	367059
17.97235	370359
17.97862	374463
17.98487	394357
17.99112	428290
17.99737	508471
18.00363	624405
18.00988	774992
18.01613	834667
18.02240	767616
18.02865	608606
18.03490	478641
18.04117	394766
18.04742	365863
18.05367	345998
18.05993	314610
18.06618	286873
18.07243	271374
18.07870	267365
18.08495	283304
18.09120	323751
18.09747	367819
18.10372	410196
18.10997	411780
18.11623	399908
18.12248	441863
18.12873	680166
18.13500	1348880
18.14125	2615415
18.14750	3865837
18.15377	3928960
18.16002	2822913
18.16627	1452896
18.17253	662202
18.17878	395741
18.18503	316546
18.19130	283829
18.19755	271478
18.20380	274480
18.21007	290176
18.21632	331601
18.22257	361335
18.22882	358580
18.23508	325340
18.24133	296058
18.24758	270863
18.25385	271007
18.26010	277744
18.26635	301182
18.27262	332121
18.27887	385182
18.28512	483147
18.29138	687462
18.29763	1062440
18.30388	1510109
18.31015	1595423
18.31640	1281810
18.32265	840868
18.32892	517864
18.33517	340555
18.34142	255539
18.34768	235147
18.35393	239880
18.36018	251805
18.36645	258387
18.37270	260168
18.37895	272255
18.38522	312609
18.39147	373259
18.39772	406583
18.40398	390646
18.41023	366775
18.41648	341050
18.42275	330487
18.42900	300466
18.43525	272000
18.44150	254318
18.44777	237822
18.45402	232219
18.46027	218101
18.46653	207735
18.47278	213685
18.47903	209604
18.48530	201581
18.49155	197375
18.49780	193731
18.50407	196765
18.51032	205827
18.51657	211372
18.52283	213592
18.52908	212706
18.53533	213981
18.54160	233567
18.54785	244836
18.55410	260361
18.56037	262588
18.56662	261319
18.57287	241408
18.57913	223676
18.58538	212114
18.59163	208263
18.59790	222546
18.60415	237516
18.61040	263510
18.61667	294410
18.62292	304243
18.62917	274564
18.63543	255285
18.64168	242193
18.64793	241605
18.65418	240070
18.66045	230771
18.66670	232488
18.67295	242070
18.67922	245007
18.68547	226207
18.69172	216621
18.69798	213588
18.70423	230511
18.71048	265093
18.71675	297875
18.72300	304053
18.72925	264332
18.73552	235505
18.74177	214285
18.74802	206184
18.75428	199309
18.76053	205400
18.76678	191977
18.77305	196765
18.77930	191901
18.78555	191199
18.79182	178805
18.79807	183861
18.80432	191232
18.81058	202606
18.81683	208858
18.82308	212366
18.82935	204425
18.83560	203570
18.84185	197960
18.84812	190873
18.85437	191803
18.86062	213429
18.86688	266803
18.87313	471731
18.87938	1083610
18.88563	2535751
18.89190	5362487
18.89815	8485811
18.90440	1.022079E+07
18.91067	8299879
18.91692	5177535
18.92317	2261116
18.92943	957425
18.93568	657824
18.94193	745720
18.94820	776179
18.95445	677582
18.96070	498523
18.96697	329047
18.97322	235272
18.97947	192124
18.98573	180953
18.99198	181118
18.99823	193232
19.00450	207044
19.01075	223828
19.01700	233235
19.02327	229296
19.02952	215966
19.03577	206941
19.04203	212653
19.04828	228603
19.05453	232189
19.06080	219946
19.06705	204094
19.07330	201560
19.07957	217138
19.08582	242242
19.09207	260858
19.09832	267257
19.10458	257275
19.11083	242627
19.11708	239966
19.12335	232392
19.12960	241228
19.13585	250852
19.14212	254021
19.14837	245084
19.15462	234119
19.16088	221501
19.16713	206997
19.17338	189048
19.17965	179241
19.18590	178959
19.19215	185616
19.19842	190317
19.20467	191012
19.21092	186370
19.21718	182716
19.22343	178320
19.22968	172443
19.23595	167771
19.24220	161787
19.24845	159139
19.25472	159497
19.26097	154154
19.26722	155367
19.27348	158325
19.27973	160164
19.28598	168765
19.29225	178864
19.29850	187114
19.30475	182691
19.31102	172857
19.31727	162106
19.32352	147724
19.32977	149423
19.33603	157484
19.34228	172955
19.34853	190510
19.35480	214154
19.36105	211952
19.36730	211992
19.37357	205241
19.37982	197208
19.38607	201399
19.39233	200963
19.39858	215635
19.40483	231144
19.41110	247442
19.41735	234063
19.42360	224534
19.42987	204257
19.43612	195171
19.44237	196080
19.44863	196167
19.45488	195197
19.46113	187690
19.46740	175666
19.47365	173482
19.47990	166031
19.48617	169044
19.49242	178652
19.49867	199020
19.50493	213259
19.51118	218889
19.51743	232133
19.52370	233680
19.52995	230191
19.53620	223389
19.54245	236542
19.54872	279097
19.55497	344715
19.56122	368467
19.56748	327992
19.57373	257879
19.57998	206240
19.58625	183859
19.59250	174790
19.59875	162609
19.60502	165852
19.61127	156019
19.61752	152444
19.62378	163420
19.63003	198935
19.63628	236971
19.64255	266767
19.64880	265239
19.65505	238386
19.66132	221908
19.66757	216576
19.67382	244608
19.68008	289777
19.68633	314137
19.69258	308277
19.69885	269420
19.70510	248906
19.71135	244708
19.71762	240912
19.72387	234746
19.73012	229889
19.73638	218126
19.74263	225445
19.74888	226978
19.75515	217820
19.76140	222616
19.76765	234966
19.77390	275381
19.78017	291314
19.78642	270470
19.79267	247372
19.79893	228151
19.80518	232256
19.81143	222085
19.81770	208174
19.82395	182933
19.83020	167304
19.83647	155945
19.84272	151970
19.84897	164793
19.85523	185498
19.86148	236245
19.86773	291873
19.87400	337873
19.88025	332255
19.88650	283030
19.89277	235689
19.89902	233571
19.90527	360429
19.91153	796019
19.91778	1960299
19.92403	3755770
19.93030	5180019
19.93655	4884825
19.94280	3317306
19.94907	1537170
19.95532	633506
19.96157	331389
19.96783	310494
19.97408	378770
19.98033	465578
19.98658	518435
19.99285	483954
19.99910	400337
20.00535	313968
20.01162	259511
20.01787	217317
20.02412	198706
20.03038	192477
20.03663	194950
20.04288	219174
20.04915	255181
20.05540	283296
20.06165	269141
20.06792	239181
20.07417	203431
20.08042	191825
20.08668	196284
20.09293	218607
20.09918	250783
20.10545	259773
20.11170	244084
20.11795	216093
20.12422	188395
20.13047	174501
20.13672	178003
20.14298	182838
20.14923	186951
20.15548	187599
20.16175	192024
20.16800	194945
20.17425	190849
20.18052	191245
20.18677	189863
20.19302	194974
20.19928	209394
20.20553	228046
20.21178	245363
20.21803	294433
20.22430	383112
20.23055	538953
20.23680	661745
20.24307	714690
20.24932	635312
20.25557	469515
20.26183	325246
20.26808	250474
20.27433	222100
20.28060	220092
20.28685	266694
20.29310	419774
20.29937	765353
20.30562	1199641
20.31187	1507535
20.31813	1369747
20.32438	964566
20.33063	583635
20.33690	359202
20.34315	299133
20.34940	315294
20.35567	325557
20.36192	301473
20.36817	279128
20.37443	233849
20.38068	222803
20.38693	223093
20.39320	222588
20.39945	215833
20.40570	210398
20.41197	225463
20.41822	265464
20.42447	377382
20.43072	686741
20.43698	1228184
20.44323	1904315
20.44948	2387559
20.45575	2224997
20.46200	1473374
20.46825	850969
20.47452	564561
20.48077	613323
20.48702	841722
20.49328	925346
20.49953	805541
20.50578	627197
20.51205	447123
20.51830	348532
20.52455	332064
20.53082	331363
20.53707	334441
20.54332	356452
20.54958	440692
20.55583	543284
20.56208	619002
20.56835	548615
20.57460	446174
20.58085	366696
20.58712	332132
20.59337	347720
20.59962	380247
20.60588	367753
20.61213	316794
20.61838	270393
20.62465	232891
20.63090	214048
20.63715	196682
20.64340	203692
20.64967	218983
20.65592	239435
20.66217	267415
20.66843	269331
20.67468	269108
20.68093	258122
20.68720	245715
20.69345	221392
20.69970	220772
20.70597	275385
20.71222	419212
20.71847	757606
20.72473	1170029
20.73098	1502292
20.73723	1428920
20.74350	1034804
20.74975	663942
20.75600	509923
20.76227	586629
20.76852	917387
20.77477	1164020
20.78103	1121420
20.78728	923772
20.79353	631149
20.79980	448547
20.80605	359900
20.81230	289803
20.81857	259095
20.82482	237003
20.83107	231884
20.83733	246662
20.84358	261154
20.84983	270741
20.85610	281188
20.86235	285874
20.86860	275889
20.87485	263775
20.88112	252736
20.88737	246367
20.89362	252374
20.89988	263218
20.90613	263363
20.91238	269686
20.91865	276217
20.92490	283141
20.93115	335377
20.93742	537059
20.94367	944290
20.94992	1391926
20.95618	1591915
20.96243	1394675
20.96868	1015945
20.97495	723937
20.98120	566443
20.98745	447567
20.99372	361103
20.99997	319629
21.00622	333218
21.01248	403483
21.01873	469562
21.02498	474149
21.03125	434815
21.03750	367208
21.04375	341267
21.05002	330995
21.05627	330311
21.06252	313959
21.06878	315890
21.07503	340628
21.08128	383363
21.08753	427125
21.09380	401789
21.10005	333773
21.10630	279005
21.11257	242229
21.11882	228567
21.12507	229019
21.13133	224590
21.13758	220299
21.14383	217965
21.15010	213965
21.15635	202045
21.16260	206156
21.16887	212988
21.17512	216738
21.18137	222152
21.18763	223041
21.19388	224757
21.20013	228837
21.20640	237091
21.21265	240192
21.21890	239795
21.22517	239626
21.23142	235986
21.23767	250852
21.24393	270483
21.25018	298072
21.25643	299879
21.26270	274763
21.26895	264577
21.27520	293342
21.28147	355420
21.28772	439005
21.29397	456739
21.30022	402513
21.30648	323852
21.31273	260369
21.31898	233595
21.32525	241866
21.33150	258996
21.33775	264199
21.34402	255082
21.35027	239965
21.35652	251840
21.36278	306478
21.36903	396615
21.37528	487401
21.38155	481197
21.38780	414899
21.39405	316724
21.40032	244244
21.40657	221668
21.41282	249721
21.41908	344138
21.42533	504301
21.43158	659488
21.43785	702979
21.44410	609575
21.45035	477669
21.45662	449600
21.46287	535881
21.46912	659556
21.47538	722422
21.48163	618775
21.48788	464310
21.49415	370521
21.50040	345273
21.50665	343065
21.51292	324806
21.51917	276579
21.52542	239864
21.53167	205742
21.53793	190178
21.54418	191578
21.55043	191339
21.55670	186583
21.56295	185429
21.56920	199037
21.57547	218943
21.58172	234150
21.58797	252576
21.59423	261020
21.60048	287519
21.60673	298161
21.61300	265341
21.61925	224038
21.62550	192764
21.63177	170176
21.63802	159006
21.64427	150687
21.65053	148915
21.65678	145702
21.66303	151475
21.66930	154079
21.67555	171806
21.68180	197218
21.68807	208286
21.69432	219002
21.70057	200127
21.70683	176372
21.71308	157920
21.71933	151437
21.72560	152671
21.73185	150559
21.73810	156159
21.74435	159125
21.75062	161419
21.75687	181233
21.76312	185942
21.76938	190343
21.77563	183942
21.78188	190653
21.78815	205301
21.79440	227521
21.80065	234733
21.80692	246961
21.81317	255308
21.81942	259811
21.82568	250425
21.83193	230010
21.83818	208495
21.84445	194718
21.85070	210726
21.85695	220628
21.86322	260632
21.86947	300143
21.87572	319127
21.88198	303003
21.88823	252692
21.89448	207729
21.90075	186290
21.90700	189286
21.91325	193063
21.91952	204910
21.92577	193088
21.93202	183256
21.93828	173278
21.94453	172107
21.95078	171609
21.95703	166948
21.96330	171539
21.96955	172159
21.97580	183924
21.98207	212087
21.98832	222020
21.99457	228657
22.00083	221272
22.00708	210631
22.01333	206393
22.01960	205832
22.02585	208823
22.03210	218785
22.03837	233536
22.04462	244277
22.05087	261447
22.05713	281788
22.06338	312631
22.06963	323169
22.07590	311312
22.08215	283008
22.08840	251134
22.09467	234843
22.10092	223226
22.10717	228934
22.11343	228950
22.11968	234421
22.12593	248373
22.13220	266044
22.13845	263651
22.14470	245237
22.15097	232644
22.15722	220598
22.16347	220098
22.16973	230403
22.17598	239928
22.18223	242986
22.18848	253192
22.19475	264269
22.20100	255812
22.20725	242422
22.21352	220880
22.21977	212114
22.22602	217367
22.23228	224263
22.23853	236864
22.24478	272250
22.25105	360855
22.25730	487008
22.26355	607645
22.26982	647383
22.27607	592831
22.28232	469591
22.28858	379516
22.29483	329377
22.30108	308631
22.30735	287427
22.31360	272933
22.31985	259615
22.32612	260105
22.33237	267306
22.33862	268633
22.34488	258692
22.35113	271370
22.35738	340354
22.36365	501313
22.36990	717379
22.37615	827420
22.38242	707531
22.38867	508674
22.39492	357001
22.40117	292027
22.40743	265359
22.41368	273238
22.41993	278453
22.42620	291742
22.43245	317855
22.43870	373673
22.44497	452660
22.45122	575315
22.45747	765569
22.46373	965602
22.46998	1096954
22.47623	983630
22.48250	758478
22.48875	521667
22.49500	405774
22.50127	364100
22.50752	332735
22.51377	308059
22.52003	290216
22.52628	278045
22.53253	334064
22.53880	473678
22.54505	732209
22.55130	1038184
22.55757	1223313
22.56382	1151580
22.57007	933887
22.57633	663806
22.58258	473019
22.58883	369731
22.59510	319932
22.60135	295716
22.60760	283151
22.61387	281967
22.62012	288880
22.62637	285187
22.63262	278023
22.63888	275456
22.64513	275909
22.65138	273737
22.65765	275670
22.66390	277281
22.67015	287703
22.67642	316947
22.68267	371018
22.68892	424046
22.69518	427633
22.70143	386383
22.70768	334286
22.71395	285877
22.72020	261380
22.72645	254391
22.73272	257994
22.73897	260108
22.74522	262087
22.75148	274008
22.75773	281756
22.76398	281736
22.77025	295166
22.77650	332240
22.78275	465218
22.78902	1043111
22.79527	2798295
22.80152	6163023
22.80778	1.178893E+07
22.81403	1.614967E+07
22.82028	1.880903E+07
22.82655	1.448171E+07
22.83280	7839183
22.83905	2983633
22.84530	1134925
22.85157	614871
22.85782	457996
22.86407	404578
22.87033	376552
22.87658	355298
22.88283	330962
22.88910	311354
22.89535	301252
22.90160	292828
22.90787	294947
22.91412	298835
22.92037	296843
22.92663	296027
22.93288	301968
22.93913	309891
22.94540	323595
22.95165	319858
22.95790	315103
22.96417	297327
22.97042	292326
22.97667	322454
22.98293	366610
22.98918	424684
22.99543	428449
23.00170	399624
23.00795	335700
23.01420	286668
23.02047	259162
23.02672	245952
23.03297	244759
23.03923	249245
23.04548	255042
23.05173	266495
23.05798	298925
23.06425	382180
23.07050	605295
23.07675	973959
23.08302	1313907
23.08927	1378177
23.09552	1113982
23.10178	755988
23.10803	473040
23.11428	333173
23.12055	270929
23.12680	244276
23.13305	230178
23.13932	226616
23.14557	222192
23.15182	219530
23.15808	216633
23.16433	206900
23.17058	209572
23.17685	203741
23.18310	207537
23.18935	211729
23.19562	218167
23.20187	216264
23.20812	222599
23.21438	219703
23.22063	211811
23.22688	209457
23.23315	203806
23.23940	198759
23.24565	206863
23.25192	207907
23.25817	211864
23.26442	218258
23.27068	213508
23.27693	206756
23.28318	207343
23.28943	214136
23.29570	226331
23.30195	266699
23.30820	346236
23.31447	492452
23.32072	624849
23.32697	673875
23.33323	559443
23.33948	409631
23.34573	311391
23.35200	264830
23.35825	240113
23.36450	229496
23.37077	217005
23.37702	220822
23.38327	218350
23.38953	225050
23.39578	225851
23.40203	225669
23.40830	222489
23.41455	218600
23.42080	213257
23.42707	209645
23.43332	209591
23.43957	214482
23.44583	228711
23.45208	248423
23.45833	265036
23.46460	288700
23.47085	304837
23.47710	332307
23.48337	363715
23.48962	402335
23.49587	437838
23.50212	466730
23.50838	530242
23.51463	647544
23.52088	796301
23.52715	853499
23.53340	753292
23.53965	589190
23.54592	408018
23.55217	323279
23.55842	304367
23.56468	323602
23.57093	381961
23.57718	470638
23.58345	581751
23.58970	680884
23.59595	781486
23.60222	849736
23.60847	855776
23.61472	773964
23.62098	610930
23.62723	466453
23.63348	362172
23.63975	321727
23.64600	293488
23.65225	281962
23.65852	269755
23.66477	248162
23.67102	237736
23.67728	234058
23.68353	239782
23.68978	254286
23.69605	276209
23.70230	286541
23.70855	295409
23.71482	325322
23.72107	422890
23.72732	596775
23.73357	794812
23.73983	892033
23.74608	747730
23.75233	561153
23.75860	402073
23.76485	306645
23.77110	270578
23.77737	265646
23.78362	261031
23.78987	262412
23.79613	271898
23.80238	279683
23.80863	280801
23.81490	308511
23.82115	337827
23.82740	352754
23.83367	340569
23.83992	318268
23.84617	294906
23.85243	277815
23.85868	272160
23.86493	272322
23.87120	276566
23.87745	296596
23.88370	354746
23.88997	419371
23.89622	486261
23.90247	497891
23.90873	469761
23.91498	400214
23.92123	342239
23.92750	314261
23.93375	306289
23.94000	303647
23.94625	313627
23.95252	390661
23.95877	661289
23.96502	1417380
23.97128	3042933
23.97753	5309851
23.98378	8334924
23.99005	1.305612E+07
23.99630	1.839674E+07
24.00255	2.402929E+07
24.00882	2.59949E+07
24.01507	2.239778E+07
24.02132	1.305857E+07
24.02758	6046759
24.03383	2420279
24.04008	1297627
24.04635	929032
24.05260	735032
24.05885	642161
24.06512	587921
24.07137	572703
24.07762	597453
24.08388	604851
24.09013	592035
24.09638	651439
24.10265	982300
24.10890	1813911
24.11515	3357015
24.12142	4851821
24.12767	5906633
24.13392	4983036
24.14018	3377188
24.14643	1874354
24.15268	982325
24.15895	626199
24.16520	500987
24.17145	473839
24.17770	491247
24.18397	582780
24.19022	757993
24.19647	1007317
24.20273	1625725
24.20898	3346677
24.21523	7418770
24.22150	1.401542E+07
24.22775	2.205308E+07
24.23400	3.07974E+07
24.24027	3.682641E+07
24.24652	4.074541E+07
24.25277	4.283169E+07
24.25903	4.350792E+07
24.26528	4.335343E+07
24.27153	4.313899E+07
24.27780	4.128502E+07
24.28405	2.027743E+07
24.29030	5004502
24.29657	2619511
24.30282	2031680
24.30907	1799344
24.31533	1646491
24.32158	1537704
24.32783	1466634
24.33410	1472376
24.34035	1486469
24.34660	1532006
24.35287	1571920
24.35912	1559159
24.36537	1595646
24.37163	1652764
24.37788	1706647
24.38413	1730222
24.39038	1674302
24.39665	1543305
24.40290	1443767
24.40915	1340007
24.41542	1281966
24.42167	1240334
24.42792	1284751
24.43418	1455931
24.44043	1677371
24.44668	1977918
24.45295	2000305
24.45920	1727085
24.46545	1356628
24.47172	1098838
24.47797	936400
24.48422	835625
24.49048	802222
24.49673	763182
24.50298	729356
24.50925	719788
24.51550	701910
24.52175	670016
24.52802	666569
24.53427	648496
24.54052	606441
24.54678	603391
24.55303	581617
24.55928	567424
24.56555	561073
24.57180	602162
24.57805	692838
24.58432	791642
24.59057	882412
24.59682	886380
24.60307	799656
24.60933	678643
24.61558	569594
24.62183	488597
24.62810	434989
24.63435	414399
24.64060	396998
24.64687	374286
24.65312	366865
24.65937	350392
24.66563	345381
24.67188	339077
24.67813	336960
24.68440	359894
24.69065	368499
24.69690	370840
24.70317	369404
24.70942	364745
24.71567	369971
24.72193	369586
24.72818	351796
24.73443	322896
24.74070	311735
24.74695	287576
24.75320	279323
24.75947	278075
24.76572	285234
24.77197	308876
24.77823	333431
24.78448	331000
24.79073	308034
24.79700	284704
24.80325	259051
24.80950	241957
24.81577	229825
24.82202	219795
24.82827	224011
24.83452	219822
24.84078	210718
24.84703	202721
24.85328	200174
24.85955	205122
24.86580	211738
24.87205	215576
24.87832	236263
24.88457	257048
24.89082	280846
24.89708	306962
24.90333	307978
24.90958	293353
24.91585	281615
24.92210	301422
24.92835	337125
24.93462	358921
24.94087	346639
24.94712	347485
24.95338	382467
24.95963	418044
24.96588	429348
24.97215	387025
24.97840	323732
24.98465	278807
24.99092	244328
24.99717	229063
25.00342	222016
25.00968	213954
25.01593	212063
25.02218	211434
25.02845	211609
25.03470	218524
25.04095	222586
25.04720	223345
25.05347	217452
25.05972	211048
25.06597	205685
25.07223	203839
25.07848	204699
25.08473	205739
25.09100	206108
25.09725	205732
25.10350	198889
25.10977	195765
25.11602	192388
25.12227	196648
25.12853	203639
25.13478	196443
25.14103	189055
25.14730	186219
25.15355	181449
25.15980	175918
25.16607	176653
25.17232	191792
25.17857	224559
25.18483	287451
25.19108	357520
25.19733	396059
25.20360	385861
25.20985	318795
25.21610	255811
25.22237	209390
25.22862	191848
25.23487	181995
25.24113	175009
25.24738	175210
25.25363	166758
25.25988	173170
25.26615	170025
25.27240	176901
25.27865	186728
25.28492	231959
25.29117	306656
25.29742	404222
25.30368	466042
25.30993	453087
25.31618	363676
25.32245	270394
25.32870	225617
25.33495	195342
25.34122	186313
25.34747	180989
25.35372	177551
25.35998	170507
25.36623	173458
25.37248	176696
25.37875	182049
25.38500	173834
25.39125	180083
25.39752	196881
25.40377	218499
25.41002	236928
25.41628	245231
25.42253	243363
25.42878	232458
25.43505	222180
25.44130	210566
25.44755	204994
25.45382	202902
25.46007	196000
25.46632	184315
25.47258	182528
25.47883	190143
25.48508	215508
25.49133	288187
25.49760	415652
25.50385	556273
25.51010	684773
25.51637	664259
25.52262	561174
25.52887	457380
25.53513	426320
25.54138	474728
25.54763	568061
25.55390	606845
25.56015	515630
25.56640	379902
25.57267	283082
25.57892	222105
25.58517	196675
25.59143	182399
25.59768	178450
25.60393	177755
25.61020	180608
25.61645	180700
25.62270	181118
25.62897	174345
25.63522	167088
25.64147	164179
25.64773	159227
25.65398	156499
25.66023	157070
25.66650	152104
25.67275	152350
25.67900	155211
25.68527	153851
25.69152	157358
25.69777	154031
25.70402	154093
25.71028	151009
25.71653	150516
25.72278	147821
25.72905	149100
25.73530	147461
25.74155	154102
25.74782	157757
25.75407	158111
25.76032	160227
25.76658	156090
25.77283	157055
25.77908	153176
25.78535	148727
25.79160	147879
25.79785	147104
25.80412	141429
25.81037	142280
25.81662	143165
25.82288	138495
25.82913	140233
25.83538	138810
25.84165	139189
25.84790	142400
25.85415	140700
25.86042	145589
25.86667	146184
25.87292	146528
25.87918	144235
25.88543	141252
25.89168	142222
25.89795	139302
25.90420	136136
25.91045	141405
25.91670	140571
25.92297	139754
25.92922	142724
25.93547	143940
25.94173	148576
25.94798	154080
25.95423	143209
25.96050	141967
25.96675	139282
25.97300	146690
25.97927	141464
25.98552	149290
25.99177	148503
25.99803	144852
26.00428	145158
26.01053	139757
26.01680	141206
26.02305	144817
26.02930	143539
26.03557	143516
26.04182	146298
26.04807	145264
26.05433	147739
26.06058	150795
26.06683	146332
26.07310	145244
26.07935	146127
26.08560	138592
26.09187	142195
26.09812	140611
26.10437	139636
26.11063	142230
26.11688	141112
26.12313	143601
26.12940	138110
26.13565	135050
26.14190	134284
26.14815	137797
26.15442	133754
26.16067	135630
26.16692	137732
26.17318	137239
26.17943	137552
26.18568	139341
26.19195	141879
26.19820	136512
26.20445	134936
26.21072	137076
26.21697	137387
26.22322	132758
26.22948	136904
26.23573	133307
26.24198	133647
26.24825	134342
26.25450	134363
26.26075	136232
26.26702	135261
26.27327	135250
26.27952	132804
26.28578	135510
26.29203	135472
26.29828	135216
26.30455	136522
26.31080	140194
26.31705	139914
26.32332	142232
26.32957	140004
26.33582	139090
26.34208	145017
26.34833	148987
26.35458	161976
26.36083	180950
26.36710	207834
26.37335	258078
26.37960	320065
26.38587	362900
26.39212	356337
26.39837	311909
26.40463	241216
26.41088	194307
26.41713	167847
26.42340	160779
26.42965	153184
26.43590	160251
26.44217	151931
26.44842	152129
26.45467	150654
26.46093	151760
26.46718	152712
26.47343	158316
26.47970	154399
26.48595	151687
26.49220	154246
26.49847	156643
26.50472	154050
26.51097	151964
26.51723	155147
26.52348	156543
26.52973	166073
26.53600	177815
26.54225	183216
26.54850	174360
26.55477	167935
26.56102	157933
26.56727	150463
26.57353	155568
26.57978	147941
26.58603	149096
26.59228	152606
26.59855	150664
26.60480	153594
26.61105	167575
26.61732	173559
26.62357	178169
26.62982	174485
26.63608	166071
26.64233	163884
26.64858	159615
26.65485	163478
26.66110	179503
26.66735	205263
26.67362	219247
26.67987	233808
26.68612	224343
26.69238	216117
26.69863	217477
26.70488	234717
26.71115	240164
26.71740	226675
26.72365	205367
26.72992	186018
26.73617	172746
26.74242	168977
26.74868	174620
26.75493	190538
26.76118	232382
26.76745	306591
26.77370	374217
26.77995	380345
26.78622	347245
26.79247	304971
26.79872	293719
26.80498	290231
26.81123	284719
26.81748	267672
26.82373	288300
26.83000	382867
26.83625	581808
26.84250	773481
26.84877	835215
26.85502	675548
26.86127	472295
26.86753	334274
26.87378	271752
26.88003	259792
26.88630	288164
26.89255	325184
26.89880	421975
26.90507	643124
26.91132	1413050
26.91757	3323447
26.92383	7059976
26.93008	1.203147E+07
26.93633	1.851577E+07
26.94260	2.209434E+07
26.94885	2.044398E+07
26.95510	1.20941E+07
26.96137	5067235
26.96762	2362261
26.97387	1377264
26.98013	904514
26.98638	618108
26.99263	451135
26.99890	368810
27.00515	347017
27.01140	386085
27.01767	497290
27.02392	709432
27.03017	884592
27.03642	872728
27.04268	701756
27.04893	521710
27.05518	400048
27.06145	362225
27.06770	336248
27.07395	323177
27.08022	300113
27.08647	272264
27.09272	258568
27.09898	249194
27.10523	237430
27.11148	230871
27.11775	231772
27.12400	245782
27.13025	294546
27.13652	354456
27.14277	394552
27.14902	393176
27.15528	362876
27.16153	301933
27.16778	263598
27.17405	262820
27.18030	260300
27.18655	269082
27.19282	259446
27.19907	241180
27.20532	240263
27.21158	238127
27.21783	236298
27.22408	233118
27.23035	229169
27.23660	224173
27.24285	225517
27.24910	233573
27.25537	245114
27.26162	247499
27.26787	234281
27.27413	229766
27.28038	219925
27.28663	219027
27.29290	214225
27.29915	217593
27.30540	218185
27.31167	220885
27.31792	220132
27.32417	211911
27.33043	209882
27.33668	215114
27.34293	209125
27.34920	219761
27.35545	221540
27.36170	225589
27.36797	227523
27.37422	230085
27.38047	232743
27.38673	226743
27.39298	232588
27.39923	229563
27.40550	236915
27.41175	255402
27.41800	266158
27.42427	268105
27.43052	247332
27.43677	235287
27.44303	226437
27.44928	212900
27.45553	211732
27.46180	201003
27.46805	199999
27.47430	197122
27.48055	202078
27.48682	200271
27.49307	206340
27.49932	197145
27.50558	195805
27.51183	190706
27.51808	191519
27.52435	192732
27.53060	196689
27.53685	199669
27.54312	202309
27.54937	204291
27.55562	201396
27.56188	202552
27.56813	196351
27.57438	187409
27.58065	190036
27.58690	189675
27.59315	191673
27.59942	190598
27.60567	192090
27.61192	196360
27.61818	190257
27.62443	200350
27.63068	192257
27.63695	197523
27.64320	195577
27.64945	200987
27.65572	195118
27.66197	194119
27.66822	193620
27.67448	194389
27.68073	197753
27.68698	199066
27.69323	196721
27.69950	201282
27.70575	202813
27.71200	206152
27.71827	211534
27.72452	221616
27.73077	216635
27.73703	217829
27.74328	214743
27.74953	214880
27.75580	220164
27.76205	214873
27.76830	217566
27.77457	218049
27.78082	226194
27.78707	211733
27.79333	201797
27.79958	200360
27.80583	207206
27.81210	202832
27.81835	204873
27.82460	198496
27.83087	205310
27.83712	199847
27.84337	206861
27.84963	213696
27.85588	230902
27.86213	239474
27.86840	258313
27.87465	264232
27.88090	250302
27.88717	239250
27.89342	223857
27.89967	223442
27.90592	221559
27.91218	212904
27.91843	210415
27.92468	214360
27.93095	210610
27.93720	208087
27.94345	212593
27.94972	209699
27.95597	210653
27.96222	210558
27.96848	211397
27.97473	210446
27.98098	213955
27.98725	216545
27.99350	225141
27.99975	229121
28.00602	226044
28.01227	228782
28.01852	221895
28.02478	221478
28.03103	214079
28.03728	210086
28.04355	212483
28.04980	217389
28.05605	210324
28.06232	213945
28.06857	219001
28.07482	210458
28.08108	211059
28.08733	213180
28.09358	216440
28.09985	209736
28.10610	209100
28.11235	219566
28.11862	212910
28.12487	215793
28.13112	212774
28.13737	216496
28.14363	219813
28.14988	215666
28.15613	210462
28.16240	218242
28.16865	219721
28.17490	209775
28.18117	210316
28.18742	205778
28.19367	210484
28.19993	212640
28.20618	212283
28.21243	212827
28.21870	214281
28.22495	212608
28.23120	215270
28.23747	213412
28.24372	213301
28.24997	212990
28.25623	214853
28.26248	216200
28.26873	218274
28.27500	223106
28.28125	228399
28.28750	222581
28.29377	227531
28.30002	234183
28.30627	233151
28.31253	244381
28.31878	243392
28.32503	243969
28.33130	250241
28.33755	256608
28.34380	256260
28.35005	264446
28.35632	281567
28.36257	282897
28.36882	286218
28.37508	298210
28.38133	302184
28.38758	306635
28.39385	309121
28.40010	311885
28.40635	320334
28.41262	330256
28.41887	323783
28.42512	331542
28.43138	325283
28.43763	323551
28.44388	320289
28.45015	300869
28.45640	300308
28.46265	284421
28.46892	287839
28.47517	293742
28.48142	273011
28.48768	267739
28.49393	266919
28.50018	260461
28.50645	263947
28.51270	256807
28.51895	251876
28.52522	248484
28.53147	249830
28.53772	243978
28.54398	240089
28.55023	241966
28.55648	236989
28.56273	228707
28.56900	236209
28.57525	231002
28.58150	224348
28.58777	231672
28.59402	218778
28.60027	224068
28.60653	221454
28.61278	226306
28.61903	223153
28.62530	220538
28.63155	227994
28.63780	220216
28.64407	226390
28.65032	225055
28.65657	219290
28.66283	219330
28.66908	226942
28.67533	218191
28.68160	217824
28.68785	216591
28.69410	217320
28.70037	214606
28.70662	211925
28.71287	215404
28.71913	225342
28.72538	222773
28.73163	227783
28.73790	219878
28.74415	221059
28.75040	226685
28.75667	224113
28.76292	224141
28.76917	223035
28.77543	223165
28.78168	211967
28.78793	208530
28.79418	209414
28.80045	209966
28.80670	215794
28.81295	214692
28.81922	209844
28.82547	214089
28.83172	213582
28.83798	215969
28.84423	214195
28.85048	208690
28.85675	209129
28.86300	211786
28.86925	206550
28.87552	213114
28.88177	209853
28.88802	209766
28.89428	208320
28.90053	214718
28.90678	209445
28.91305	207514
28.91930	205152
28.92555	208466
28.93182	211189
28.93807	213587
28.94432	211270
28.95058	210381
28.95683	208989
28.96308	209927
28.96935	207166
28.97560	204271
28.98185	208155
28.98812	201988
28.99437	207181
29.00062	209471
29.00687	209273
29.01313	212376
29.01938	208747
29.02563	211831
29.03190	209132
29.03815	204046
29.04440	213516
29.05067	205946
29.05692	207016
29.06317	213951
29.06943	201553
29.07568	209508
29.08193	207339
29.08820	206109
29.09445	209973
29.10070	202739
29.10697	204022
29.11322	208273
29.11947	201497
29.12573	207815
29.13198	205494
29.13823	202938
29.14450	209022
29.15075	210927
29.15700	209729
29.16327	207133
29.16952	202317
29.17577	204589
29.18203	206528
29.18828	200671
29.19453	207662
29.20080	198792
29.20705	204475
29.21330	209434
29.21957	204582
29.22582	218029
29.23207	218172
29.23832	220347
29.24458	231355
29.25083	241907
29.25708	238016
29.26335	226894
29.26960	215065
29.27585	214176
29.28212	209868
29.28837	215639
29.29462	213344
29.30088	214963
29.30713	208619
29.31338	210503
29.31965	207631
29.32590	212976
29.33215	200032
29.33842	206863
29.34467	208063
29.35092	202691
29.35718	209214
29.36343	210035
29.36968	203375
29.37595	208772
29.38220	209305
29.38845	197029
29.39472	202449
29.40097	200121
29.40722	201722
29.41348	202599
29.41973	202901
29.42598	205324
29.43225	205290
29.43850	199242
29.44475	205750
29.45102	199979
29.45727	206899
29.46352	199672
29.46977	202753
29.47603	205178
29.48228	201659
29.48853	198595
29.49480	202700
29.50105	194867
29.50730	200934
29.51357	203778
29.51982	206753
29.52607	199362
29.53233	202000
29.53858	193216
29.54483	205153
29.55110	196883
29.55735	199399
29.56360	197390
29.56987	199108
29.57612	195754
29.58237	201561
29.58863	199784
29.59488	196823
29.60113	197100
29.60740	204158
29.61365	203385
29.61990	197290
29.62617	200282
29.63242	194472
29.63867	198941
29.64493	199138
29.65118	196623
29.65743	196131
29.66370	199308
29.66995	193764
29.67620	202689
29.68245	204280
29.68872	195895
29.69497	193936
29.70122	196652
29.70748	197959
29.71373	194161
29.71998	195222
29.72625	194914
29.73250	196205
29.73875	194431
29.74502	191524
29.75127	195977
29.75752	193105
29.76378	193783
29.77003	197284
29.77628	193704
29.78255	193510
29.78880	203423
29.79505	194253
29.80132	194332
29.80757	199380
29.81382	194400
29.82008	199254
29.82633	201298
29.83258	190166
29.83885	194682
29.84510	195061
29.85135	194735
29.85762	195716
29.86387	196230
29.87012	201370
29.87638	193923
29.88263	194860
29.88888	197041
29.89513	201398
29.90140	192762
29.90765	202329
29.91390	196045
29.92017	194574
29.92642	197615
29.93267	189313
29.93893	195695
29.94518	199354
29.95143	198210
29.95770	194461
29.96395	196218
29.97020	189156
29.97647	196390
29.98272	187764
29.98897	194297
29.99523	192198
30.00148	191939
30.00773	198634
30.01400	190997
30.02025	193743
30.02650	188425
30.03277	195290
30.03902	188894
30.04527	194490
30.05153	193858
30.05778	194374
30.06403	191297
30.07030	189635
30.07655	186590
30.08280	190741
30.08907	192634
30.09532	187845
30.10157	189307
30.10783	196992
30.11408	188291
30.12033	191473
30.12658	190146
30.13285	194319
30.13910	194753
30.14535	188353
30.15162	192605
30.15787	192886
30.16412	189664
30.17038	193595
30.17663	187583
30.18288	195332
30.18915	184215
30.19540	194988
30.20165	191561
30.20792	190955
30.21417	184169
30.22042	191806
30.22668	190704
30.23293	189632
30.23918	187894
30.24545	185574
30.25170	183881
30.25795	189115
30.26422	191093
30.27047	184679
30.27672	194197
30.28298	184599
30.28923	187767
30.29548	191040
30.30175	183337
30.30800	186312
30.31425	187097
30.32052	187840
30.32677	183343
30.33302	185578
30.33927	194114
30.34553	191011
30.35178	185429
30.35803	185322
30.36430	189103
30.37055	187996
30.37680	188251
30.38307	191642
30.38932	187344
30.39557	180501
30.40183	181396
30.40808	185140
30.41433	190044
30.42060	190803
30.42685	191134
30.43310	186781
30.43937	183618
30.44562	188712
30.45187	187990
30.45813	189144
30.46438	186708
30.47063	191434
30.47690	180256
30.48315	188754
30.48940	189103
30.49567	183185
30.50192	187251
30.50817	183818
30.51443	181535
30.52068	181788
30.52693	186107
30.53320	182587
30.53945	185000
30.54570	189157
30.55195	188075
30.55822	180174
30.56447	182909
30.57072	183452
30.57698	184274
30.58323	189135
30.58948	183734
30.59575	181544
30.60200	181213
30.60825	184624
30.61452	182008
30.62077	187079
30.62702	181688
30.63328	182069
30.63953	185123
30.64578	179050
30.65205	182605
30.65830	180652
30.66455	181652
30.67082	186564
30.67707	191112
30.68332	190868
30.68958	197505
30.69583	200067
30.70208	203006
30.70835	202001
30.71460	204362
30.72085	199651
30.72712	193957
30.73337	192144
30.73962	187182
30.74588	188137
30.75213	183688
30.75838	180646
30.76465	179567
30.77090	184290
30.77715	179292
30.78340	182617
30.78967	178333
30.79592	190825
30.80217	182406
30.80843	179710
30.81468	187513
30.82093	181103
30.82720	181031
30.83345	182797
30.83970	188659
30.84597	177284
30.85222	179523
30.85847	183290
30.86473	183531
30.87098	182244
30.87723	181959
30.88350	179434
30.88975	180929
30.89600	185959
30.90227	179681
30.90852	177345
30.91477	185070
30.92103	183911
30.92728	185044
30.93353	185028
30.93980	184113
30.94605	181037
30.95230	185092
30.95857	179565
30.96482	187479
30.97107	179307
30.97733	184693
30.98358	184220
30.98983	187646
30.99608	192016
31.00235	186250
31.00860	186256
31.01485	195503
31.02112	193589
31.02737	188287
31.03362	186400
31.03988	189755
31.04613	184693
31.05238	183204
31.05865	185980
31.06490	184864
31.07115	181861
31.07742	183796
31.08367	176614
31.08992	179553
31.09618	180180
31.10243	179184
31.10868	176751
31.11495	175419
31.12120	179757
31.12745	179675
31.13372	176836
31.13997	182755
31.14622	182343
31.15248	178079
31.15873	182635
31.16498	175604
31.17125	180214
31.17750	178211
31.18375	179487
31.19002	176193
31.19627	176908
31.20252	173264
31.20877	185146
31.21503	176072
31.22128	175683
31.22753	173346
31.23380	172638
31.24005	176011
31.24630	178701
31.25257	180254
31.25882	180351
31.26507	169777
31.27133	178736
31.27758	180422
31.28383	176569
31.29010	172477
31.29635	179080
31.30260	173855
31.30887	174921
31.31512	176167
31.32137	182401
31.32763	177521
31.33388	174304
31.34013	173266
31.34640	183670
31.35265	170406
31.35890	181416
31.36517	177378
31.37142	182272
31.37767	177187
31.38393	179076
31.39018	177637
31.39643	181449
31.40270	182547
31.40895	179904
31.41520	182055
31.42147	177375
31.42772	179053
31.43397	180362
31.44022	182870
31.44648	186390
31.45273	179242
31.45898	180726
31.46525	176199
31.47150	180209
31.47775	175439
31.48402	179245
31.49027	176575
31.49652	181934
31.50278	180184
31.50903	174934
31.51528	176845
31.52155	175153
31.52780	171141
31.53405	175153
31.54032	173912
31.54657	174830
31.55282	174736
31.55908	176174
31.56533	178371
31.57158	172344
31.57785	173514
31.58410	168947
31.59035	170071
31.59662	168687
31.60287	176644
31.60912	176804
31.61538	171547
31.62163	171811
31.62788	172193
31.63415	176764
31.64040	167699
31.64665	174108
31.65290	171860
31.65917	170238
31.66542	174963
31.67167	171790
31.67793	168015
31.68418	170801
31.69043	179440
31.69670	169904
31.70295	170225
31.70920	171648
31.71547	174320
31.72172	170337
31.72797	178482
31.73423	167356
31.74048	174813
31.74673	170847
31.75300	172622
31.75925	171864
31.76550	174970
31.77177	173823
31.77802	165868
31.78427	166491
31.79053	174320
31.79678	170516
31.80303	172995
31.80930	165510
31.81555	166287
31.82180	168974
31.82807	169623
31.83432	173519
31.84057	167957
31.84683	173284
31.85308	168349
31.85933	168600
31.86560	168772
31.87185	172533
31.87810	166660
31.88435	171452
31.89062	173225
31.89687	170279
31.90312	168981
31.90938	170471
31.91563	169373
31.92188	165273
31.92815	170305
31.93440	164702
31.94065	165885
31.94692	170614
31.95317	166164
31.95942	173771
31.96568	167752
31.97193	166373
31.97818	171126
31.98445	170126
31.99070	170375
31.99695	165062
32.00322	167400
32.00947	162515
32.01572	170623
32.02198	169615
32.02823	169619
32.03448	168148
32.04075	163037
32.04700	165695
32.05325	167629
32.05952	164730
32.06577	172292
32.07202	166146
32.07828	170415
32.08453	160203
32.09078	162323
32.09703	170830
32.10330	163916
32.10955	169641
32.11580	164703
32.12207	169679
32.12832	165590
32.13457	161942
32.14083	162884
32.14708	164074
32.15333	162604
32.15960	163605
32.16585	164874
32.17210	164545
32.17837	165431
32.18462	164144
32.19087	163297
32.19713	169803
32.20338	173194
32.20963	161208
32.21590	162846
32.22215	166682
32.22840	160112
32.23467	162914
32.24092	167940
32.24717	166839
32.25343	166462
32.25968	165631
32.26593	165639
32.27220	164789
32.27845	163420
32.28470	164791
32.29097	163261
32.29722	165737
32.30347	164350
32.30973	160992
32.31598	162719
32.32223	163227
32.32848	160478
32.33475	164383
32.34100	164279
32.34725	159925
32.35352	164108
32.35977	166942
32.36602	166116
32.37228	168004
32.37853	164145
32.38478	160365
32.39105	165523
32.39730	161866
32.40355	165315
32.40982	161442
32.41607	162939
32.42232	160771
32.42858	165252
32.43483	162671
32.44108	163551
32.44735	162300
32.45360	161676
32.45985	161137
32.46612	160282
32.47237	162493
32.47862	160390
32.48488	159493
32.49113	165780
32.49738	166868
32.50365	164914
32.50990	160250
32.51615	159416
32.52242	164955
32.52867	159152
32.53492	165187
32.54117	159830
32.54743	167260
32.55368	166442
32.55993	163858
32.56620	166039
32.57245	162393
32.57870	162098
32.58497	160928
32.59122	161385
32.59747	165102
32.60373	156153
32.60998	163980
32.61623	160947
32.62250	157847
32.62875	157367
32.63500	156547
32.64127	156924
32.64752	160290
32.65377	159000
32.66003	167308
32.66628	163458
32.67253	161228
32.67880	156355
32.68505	155369
32.69130	157676
32.69757	156421
32.70382	160817
32.71007	158409
32.71633	158745
32.72258	161703
32.72883	162784
32.73510	165790
32.74135	155372
32.74760	156385
32.75387	159960
32.76012	155195
32.76637	158213
32.77262	155733
32.77888	160929
32.78513	163572
32.79138	158270
32.79765	162578
32.80390	157394
32.81015	160729
32.81642	161727
32.82267	165556
32.82892	157971
32.83518	162148
32.84143	157673
32.84768	159503
32.85395	157056
32.86020	157091
32.86645	160403
32.87272	156570
32.87897	162297
32.88522	157138
32.89148	158938
32.89773	162303
32.90398	163722
32.91025	162645
32.91650	155709
32.92275	152219
32.92902	162167
32.93527	160866
32.94152	157998
32.94778	162654
32.95403	155760
32.96028	154932
32.96655	156838
32.97280	158211
32.97905	160501
32.98530	156776
32.99157	155145
32.99782	155649
33.00407	155500
33.01033	153276
33.01658	155318
33.02283	159596
33.02910	158556
33.03535	157299
33.04160	154913
33.04787	155184
33.05412	156709
33.06037	153068
33.06663	152465
33.07288	157224
33.07913	155950
33.08540	156143
33.09165	158657
33.09790	161113
33.10417	156117
33.11042	159749
33.11667	153373
33.12293	159177
33.12918	162644
33.13543	156083
33.14170	161326
33.14795	158388
33.15420	164276
33.16047	166694
33.16672	169516
33.17297	166983
33.17923	168169
33.18548	167450
33.19173	172849
33.19798	167571
33.20425	170152
33.21050	169069
33.21675	163072
33.22302	163285
33.22927	162957
33.23552	157345
33.24178	160324
33.24803	162218
33.25428	158916
33.26055	166456
33.26680	156581
33.27305	156931
33.27932	155238
33.28557	161340
33.29182	162305
33.29808	155565
33.30433	154846
33.31058	151345
33.31685	153706
33.32310	159131
33.32935	161227
33.33562	162447
33.34187	151558
33.34812	153260
33.35438	153553
33.36063	155495
33.36688	154809
33.37315	155532
33.37940	155164
33.38565	154682
33.39192	163282
33.39817	154994
33.40442	158905
33.41068	162299
33.41693	155857
33.42318	157300
33.42943	155935
33.43570	159127
33.44195	154076
33.44820	150591
33.45447	154937
33.46072	151084
33.46697	160522
33.47323	153144
33.47948	154288
33.48573	155084
33.49200	150817
33.49825	152560
33.50450	150891
33.51077	156062
33.51702	154764
33.52327	157156
33.52953	150840
33.53578	154313
33.54203	148295
33.54830	149346
33.55455	154210
33.56080	155822
33.56707	152968
33.57332	154524
33.57957	151153
33.58583	153696
33.59208	150272
33.59833	150894
33.60460	148685
33.61085	148970
33.61710	150137
33.62337	149292
33.62962	153938
33.63587	154595
33.64212	153809
33.64838	157280
33.65463	149065
33.66088	152788
33.66715	151210
33.67340	156390
33.67965	150917
33.68592	151271
33.69217	147606
33.69842	149446
33.70468	151274
33.71093	151252
33.71718	150038
33.72345	152350
33.72970	147129
33.73595	147494
33.74222	145335
33.74847	148031
33.75472	150843
33.76098	152794
33.76723	148141
33.77348	149111
33.77975	151075
33.78600	148312
33.79225	151906
33.79852	153760
33.80477	151235
33.81102	151412
33.81728	153171
33.82353	152451
33.82978	147293
33.83605	146504
33.84230	152365
33.84855	150841
33.85480	147390
33.86107	147729
33.86732	148618
33.87357	146386
33.87983	148937
33.88608	152224
33.89233	148760
33.89860	146720
33.90485	152270
33.91110	146849
33.91737	145961
33.92362	148425
33.92987	143629
33.93613	147372
33.94238	146605
33.94863	154659
33.95490	153036
33.96115	147049
33.96740	150649
33.97367	146183
33.97992	146354
33.98617	152521
33.99243	151388
33.99868	145687
34.00493	145706
34.01120	143065
34.01745	153415
34.02370	149410
34.02997	145365
34.03622	146345
34.04247	150416
34.04873	146385
34.05498	144374
34.06123	149492
34.06750	147474
34.07375	145367
34.08000	147129
34.08625	147495
34.09252	143525
34.09877	148059
34.10502	145926
34.11128	146189
34.11753	151076
34.12378	151212
34.13005	152429
34.13630	143952
34.14255	146739
34.14882	143929
34.15507	144763
34.16132	145802
34.16758	146960
34.17383	146241
34.18008	148206
34.18635	146290
34.19260	145019
34.19885	149301
34.20512	143279
34.21137	143550
34.21762	150099
34.22388	145626
34.23013	143811
34.23638	149061
34.24265	143245
34.24890	145028
34.25515	147132
34.26142	149558
34.26767	144687
34.27392	145339
34.28018	143482
34.28643	142487
34.29268	145704
34.29893	145985
34.30520	144449
34.31145	142872
34.31770	144441
34.32397	151154
34.33022	148212
34.33647	144235
34.34273	145537
34.34898	152503
34.35523	149928
34.36150	147409
34.36775	142510
34.37400	143164
34.38027	144858
34.38652	149555
34.39277	148978
34.39903	147142
34.40528	143965
34.41153	144471
34.41780	146073
34.42405	146552
34.43030	148639
34.43657	143314
34.44282	145995
34.44907	142992
34.45533	143194
34.46158	148773
34.46783	143410
34.47410	144823
34.48035	147382
34.48660	144809
34.49287	142559
34.49912	141719
34.50537	147703
34.51163	146074
34.51788	143406
34.52413	143629
34.53038	141694
34.53665	146420
34.54290	142047
34.54915	144782
34.55542	142384
34.56167	147777
34.56792	149119
34.57418	140676
34.58043	146052
34.58668	141345
34.59295	145123
34.59920	143397
34.60545	149686
34.61172	140911
34.61797	142529
34.62422	144819
34.63048	141142
34.63673	145740
34.64298	141766
34.64925	143380
34.65550	140399
34.66175	145794
34.66802	146036
34.67427	141463
34.68052	145912
34.68678	144524
34.69303	140777
34.69928	142145
34.70555	145001
34.71180	145330
34.71805	142136
34.72432	141034
34.73057	148009
34.73682	139941
34.74307	141185
34.74933	143968
34.75558	140859
34.76183	146277
34.76810	145821
34.77435	139487
34.78060	141151
34.78687	143632
34.79312	139559
34.79937	141381
34.80563	144632
34.81188	141322
34.81813	141901
34.82440	138963
34.83065	141955
34.83690	144826
34.84317	140859
34.84942	142779
34.85567	141312
34.86193	142374
34.86818	140917
34.87443	141604
34.88070	136965
34.88695	141650
34.89320	140588
34.89947	143593
34.90572	144778
34.91197	138827
34.91823	145151
34.92448	141114
34.93073	140093
34.93700	142936
34.94325	141155
34.94950	143672
34.95577	139277
34.96202	139169
34.96827	141131
34.97452	136411
34.98078	140791
34.98703	140654
34.99328	138174
34.99955	140096
35.00580	142789
35.01205	145394
35.01832	137405
35.02457	137918
35.03082	140060
35.03708	139594
35.04333	143865
35.04958	137687
35.05585	144259
35.06210	137169
35.06835	137350
35.07462	138957
35.08087	142386
35.08712	138123
35.09338	144647
35.09963	141567
35.10588	137439
35.11215	139600
35.11840	143539
35.12465	137013
35.13092	143085
35.13717	141106
35.14342	137931
35.14968	140710
35.15593	137126
35.16218	137329
35.16845	138556
35.17470	138326
35.18095	149751
35.18720	161447
35.19347	146709
35.19972	138112
35.20597	137933
35.21223	143806
35.21848	142630
35.22473	140539
35.23100	136126
35.23725	137119
35.24350	134768
35.24977	138896
35.25602	140155
35.26227	139152
35.26853	134446
35.27478	139825
35.28103	139603
35.28730	140529
35.29355	139678
35.29980	136034
35.30607	138457
35.31232	137124
35.31857	140736
35.32483	139404
35.33108	133537
35.33733	137276
35.34360	139084
35.34985	135115
35.35610	133304
35.36237	135489
35.36862	137821
35.37487	137537
35.38113	137596
35.38738	133179
35.39363	138990
35.39990	139057
35.40615	137658
35.41240	141827
35.41865	136657
35.42492	139831
35.43117	144326
35.43742	133733
35.44368	141118
35.44993	136577
35.45618	137709
35.46245	139146
35.46870	136826
35.47495	136370
35.48122	135897
35.48747	137702
35.49372	134342
35.49998	141556
35.50623	137953
35.51248	133410
35.51875	142714
35.52500	135755
35.53125	136094
35.53752	133534
35.54377	134848
35.55002	137786
35.55628	135651
35.56253	135166
35.56878	137679
35.57505	138873
35.58130	140147
35.58755	142790
35.59382	138070
35.60007	135733
35.60632	140766
35.61258	136860
35.61883	140908
35.62508	145658
35.63133	135239
35.63760	133927
35.64385	138246
35.65010	137698
35.65637	135305
35.66262	140513
35.66887	138500
35.67513	134874
35.68138	132466
35.68763	134194
35.69390	132689
35.70015	134666
35.70640	137020
35.71267	134283
35.71892	135595
35.72517	137852
35.73143	139331
35.73768	139963
35.74393	136366
35.75020	137328
35.75645	131797
35.76270	134765
35.76897	136268
35.77522	133823
35.78147	134930
35.78773	137487
35.79398	131880
35.80023	133572
35.80650	136167
35.81275	134755
35.81900	132367
35.82527	134500
35.83152	137489
35.83777	133790
35.84402	133806
35.85028	134027
35.85653	134561
35.86278	134478
35.86905	134282
35.87530	137527
35.88155	134371
35.88782	136310
35.89407	129579
35.90032	130314
35.90658	138683
35.91283	130683
35.91908	128466
35.92535	137323
35.93160	135150
35.93785	132119
35.94412	140389
35.95037	133605
35.95662	135345
35.96288	137020
35.96913	133244
35.97538	132512
35.98165	131325
35.98790	136810
35.99415	131062
36.00042	129730
36.00667	130991
36.01292	130966
36.01918	137508
36.02543	135168
36.03168	135876
36.03795	137514
36.04420	132778
36.05045	133616
36.05672	133020
36.06297	138383
36.06922	136512
36.07547	131021
36.08173	131427
36.08798	133438
36.09423	130711
36.10050	134016
36.10675	137138
36.11300	133627
36.11927	137760
36.12552	135830
36.13177	132904
36.13803	133290
36.14428	132860
36.15053	134787
36.15680	132385
36.16305	135324
36.16930	129914
36.17557	136158
36.18182	137582
36.18807	135604
36.19433	131536
36.20058	133301
36.20683	131518
36.21310	133541
36.21935	138315
36.22560	136615
36.23187	136320
36.23812	139468
36.24437	138091
36.25063	140073
36.25688	143559
36.26313	152487
36.26940	156155
36.27565	163827
36.28190	180187
36.28815	188834
36.29442	194461
36.30067	206396
36.30692	220766
36.31318	237810
36.31943	250760
36.32568	257839
36.33195	253905
36.33820	261627
36.34445	259722
36.35072	258645
36.35697	247953
36.36322	245224
36.36948	234274
36.37573	220892
36.38198	211649
36.38825	201519
36.39450	188532
36.40075	179200
36.40702	172730
36.41327	164020
36.41952	161929
36.42578	155598
36.43203	152303
36.43828	152805
36.44455	144222
36.45080	145203
36.45705	150496
36.46332	145692
36.46957	144952
36.47582	141984
36.48208	143018
36.48833	139786
36.49458	139719
36.50083	145508
36.50710	142317
36.51335	136813
36.51960	143120
36.52587	139907
36.53212	136750
36.53837	137487
36.54463	139604
36.55088	137869
36.55713	138620
36.56340	138306
36.56965	140453
36.57590	135988
36.58217	136656
36.58842	139483
36.59467	135930
36.60093	131135
36.60718	135912
36.61343	135272
36.61970	131651
36.62595	132205
36.63220	138650
36.63847	133729
36.64472	134858
36.65097	131036
36.65723	137108
36.66348	134448
36.66973	136018
36.67600	135768
36.68225	130821
36.68850	135034
36.69477	131755
36.70102	135834
36.70727	133915
36.71353	132460
36.71978	132110
36.72603	134136
36.73228	127846
36.73855	132858
36.74480	135446
36.75105	131858
36.75732	135834
36.76357	129190
36.76982	135730
36.77608	132236
36.78233	135430
36.78858	132627
36.79485	133959
36.80110	132200
36.80735	129556
36.81362	130709
36.81987	129585
36.82612	132461
36.83238	131762
36.83863	129324
36.84488	128772
36.85115	131194
36.85740	128163
36.86365	126589
36.86992	130344
36.87617	127949
36.88242	130043
36.88868	128887
36.89493	129677
36.90118	130627
36.90745	127184
36.91370	126420
36.91995	127905
36.92622	133872
36.93247	128016
36.93872	129583
36.94497	130367
36.95123	130235
36.95748	131036
36.96373	134278
36.97000	128907
36.97625	131389
36.98250	127777
36.98877	129774
36.99502	129766
37.00127	129661
37.00753	128838
37.01378	130948
37.02003	129852
37.02630	129095
37.03255	128574
37.03880	129749
37.04507	128585
37.05132	125559
37.05757	127991
37.06383	131672
37.07008	127535
37.07633	128583
37.08260	125556
37.08885	128351
37.09510	132098
37.10137	132329
37.10762	127228
37.11387	127413
37.12013	128855
37.12638	133066
37.13263	128382
37.13890	125841
37.14515	128722
37.15140	126039
37.15767	126686
37.16392	127386
37.17017	132558
37.17642	128152
37.18268	133415
37.18893	129171
37.19518	125805
37.20145	128515
37.20770	124296
37.21395	126329
37.22022	126698
37.22647	126459
37.23272	129034
37.23898	127405
37.24523	130124
37.25148	125150
37.25775	127080
37.26400	128587
37.27025	129209
37.27652	132117
37.28277	130084
37.28902	128580
37.29528	125198
37.30153	125295
37.30778	128675
37.31405	127122
37.32030	131555
37.32655	128002
37.33282	126684
37.33907	128923
37.34532	124446
37.35158	126593
37.35783	125682
37.36408	126393
37.37035	129589
37.37660	124438
37.38285	124489
37.38910	125392
37.39537	125907
37.40162	125804
37.40787	126844
37.41413	130034
37.42038	127528
37.42663	124210
37.43290	124656
37.43915	128984
37.44540	123137
37.45167	126163
37.45792	126389
37.46417	125250
37.47043	126032
37.47668	122497
37.48293	127550
37.48920	131137
