D:\MassHunter\GCMS\1\data\metastasis_lineages_3replicates_3runs_10302020\L_plate2_run1_10302020.D Fri Oct 30 19:18:06 2020
Start of data points
5.99345,172354
5.99972,179336
6.00597,191048
6.01222,196102
6.01848,191224
6.02473,183495
6.03098,181146
6.03725,185993
6.04350,186419
6.04975,194443
6.05602,181847
6.06227,182813
6.06852,203042
6.07478,212607
6.08103,203169
6.08728,184322
6.09355,172641
6.09980,225417
6.10605,441802
6.11232,811472
6.11857,1025746
6.12482,814961
6.13108,475634
6.13733,268800
6.14358,209346
6.14985,211797
6.15610,276488
6.16235,442986
6.16860,725861
6.17487,977260
6.18112,919514
6.18737,609178
6.19363,368683
6.19988,243792
6.20613,203608
6.21240,190554
6.21865,181556
6.22490,168315
6.23117,159964
6.23742,157693
6.24367,148910
6.24993,143670
6.25618,136780
6.26243,137100
6.26870,131376
6.27495,136700
6.28120,149123
6.28747,149378
6.29372,137637
6.29997,141818
6.30623,172315
6.31248,256906
6.31873,447309
6.32500,963576
6.33125,2493946
6.33750,5617618
6.34377,8639443
6.35002,8272346
6.35627,4310401
6.36253,1204854
6.36878,321914
6.37503,182081
6.38128,170167
6.38755,163594
6.39380,163665
6.40005,177326
6.40632,252383
6.41257,399904
6.41882,531233
6.42508,538659
6.43133,561554
6.43758,718515
6.44385,776883
6.45010,645181
6.45635,731427
6.46262,1787028
6.46887,4715488
6.47512,9771587
6.48138,1.619206E+07
6.48763,2.282336E+07
6.49388,2.966669E+07
6.50015,3.595625E+07
6.50640,4.090098E+07
6.51265,4.375266E+07
6.51892,4.446923E+07
6.52517,4.436492E+07
6.53142,4.264246E+07
6.53768,1.632526E+07
6.54393,1212081
6.55018,597558
6.55645,610488
6.56270,666027
6.56895,841988
6.57522,1293768
6.58147,1799645
6.58772,1760431
6.59398,1049158
6.60023,480282
6.60648,291021
6.61273,244760
6.61900,228231
6.62525,219515
6.63150,217066
6.63777,218451
6.64402,233215
6.65027,226136
6.65653,220114
6.66278,233184
6.66903,295389
6.67530,380158
6.68155,388310
6.68780,322865
6.69407,257838
6.70032,228965
6.70657,223329
6.71283,219564
6.71908,232594
6.72533,248919
6.73160,261662
6.73785,270212
6.74410,271203
6.75037,272798
6.75662,284859
6.76287,280890
6.76913,291086
6.77538,286872
6.78163,292221
6.78790,299792
6.79415,309749
6.80040,326724
6.80667,358653
6.81292,396872
6.81917,402790
6.82542,381288
6.83168,372924
6.83793,370017
6.84418,397387
6.85045,422621
6.85670,425149
6.86295,406729
6.86922,408290
6.87547,479122
6.88172,651362
6.88798,890893
6.89423,952247
6.90048,749431
6.90675,539153
6.91300,431018
6.91925,390376
6.92552,363508
6.93177,345943
6.93802,337794
6.94428,343339
6.95053,331921
6.95678,326031
6.96305,306670
6.96930,296777
6.97555,290014
6.98182,287917
6.98807,287234
6.99432,277801
7.00058,257424
7.00683,246286
7.01308,254675
7.01935,269704
7.02560,362379
7.03185,665575
7.03812,1600038
7.04437,3693670
7.05062,6141184
7.05687,6579892
7.06313,4406810
7.06938,1855494
7.07563,568944
7.08190,238801
7.08815,175781
7.09440,151983
7.10067,140326
7.10692,134932
7.11317,130992
7.11943,121468
7.12568,116056
7.13193,125529
7.13820,163261
7.14445,246101
7.15070,396915
7.15697,473485
7.16322,361985
7.16947,223210
7.17573,139977
7.18198,115089
7.18823,107800
7.19450,115978
7.20075,144979
7.20700,184801
7.21327,194984
7.21952,161807
7.22577,127616
7.23203,113825
7.23828,124274
7.24453,144356
7.25080,207327
7.25705,389730
7.26330,668788
7.26955,841173
7.27582,696027
7.28207,436142
7.28832,247584
7.29458,156975
7.30083,134048
7.30708,125139
7.31335,126378
7.31960,111803
7.32585,105407
7.33212,101273
7.33837,97476
7.34462,99334
7.35088,93881
7.35713,96667
7.36338,95626
7.36965,92100
7.37590,89434
7.38215,95407
7.38842,109770
7.39467,128888
7.40092,121838
7.40718,115269
7.41343,129914
7.41968,161437
7.42595,221284
7.43220,265862
7.43845,260860
7.44472,217525
7.45097,162292
7.45722,138790
7.46348,142130
7.46973,161252
7.47598,163056
7.48225,160094
7.48850,155949
7.49475,179507
7.50100,234293
7.50727,298716
7.51352,302184
7.51977,232238
7.52603,154689
7.53228,113885
7.53853,103702
7.54480,117033
7.55105,231002
7.55730,861119
7.56357,3050424
7.56982,7844792
7.57607,1.481437E+07
7.58233,2.113119E+07
7.58858,2.251921E+07
7.59483,1.531756E+07
7.60110,5647281
7.60735,1598954
7.61360,811914
7.61987,646883
7.62612,591924
7.63237,520240
7.63863,396887
7.64488,276121
7.65113,197681
7.65740,168337
7.66365,161271
7.66990,176622
7.67617,240071
7.68242,334091
7.68867,387258
7.69493,338279
7.70118,236337
7.70743,181929
7.71368,196354
7.71995,263494
7.72620,310310
7.73245,299893
7.73872,253212
7.74497,209425
7.75122,172952
7.75748,148821
7.76373,126702
7.76998,115742
7.77625,114135
7.78250,120867
7.78875,132550
7.79502,124869
7.80127,122564
7.80752,117993
7.81378,120650
7.82003,138349
7.82628,189839
7.83255,248917
7.83880,274005
7.84505,229072
7.85132,187787
7.85757,191254
7.86382,240917
7.87008,283285
7.87633,269589
7.88258,214048
7.88885,171655
7.89510,141649
7.90135,139159
7.90762,150042
7.91387,165281
7.92012,178243
7.92638,174086
7.93263,165836
7.93888,158217
7.94513,176079
7.95140,228775
7.95765,296086
7.96390,311780
7.97017,272569
7.97642,238473
7.98267,239742
7.98893,302042
7.99518,470150
8.00143,690023
8.00770,838197
8.01395,1086115
8.02020,1589245
8.02647,1950529
8.03272,1703925
8.03897,1131389
8.04523,741518
8.05148,681628
8.05773,753596
8.06400,730504
8.07025,516966
8.07650,322048
8.08277,260376
8.08902,325326
8.09527,450168
8.10153,547831
8.10778,631634
8.11403,815295
8.12030,1047049
8.12655,1059902
8.13280,748921
8.13907,392590
8.14532,217109
8.15157,158538
8.15782,138992
8.16408,135303
8.17033,127329
8.17658,118833
8.18285,110737
8.18910,110212
8.19535,108417
8.20162,100101
8.20787,105011
8.21412,104340
8.22038,118587
8.22663,167748
8.23288,255829
8.23915,360097
8.24540,375624
8.25165,301051
8.25792,207541
8.26417,164538
8.27042,148182
8.27668,149164
8.28293,156886
8.28918,175987
8.29545,181557
8.30170,161687
8.30795,132395
8.31422,107286
8.32047,92663
8.32672,87249
8.33298,88662
8.33923,91875
8.34548,95283
8.35175,96007
8.35800,96188
8.36425,101910
8.37050,102621
8.37677,100350
8.38302,91245
8.38927,102622
8.39553,124409
8.40178,219522
8.40803,407729
8.41430,565162
8.42055,530498
8.42680,341659
8.43307,190152
8.43932,143250
8.44557,139949
8.45183,162284
8.45808,174997
8.46433,161889
8.47060,141344
8.47685,122663
8.48310,118300
8.48937,112640
8.49562,115353
8.50187,119259
8.50813,128514
8.51438,129152
8.52063,121846
8.52690,106902
8.53315,101181
8.53940,93350
8.54567,99474
8.55192,106905
8.55817,131946
8.56443,212018
8.57068,349435
8.57693,563047
8.58320,884816
8.58945,1369581
8.59570,1631521
8.60195,1497669
8.60822,1375085
8.61447,2402717
8.62072,5608793
8.62698,1.005441E+07
8.63323,1.271312E+07
8.63948,1.063057E+07
8.64575,5042637
8.65200,1503179
8.65825,384248
8.66452,198198
8.67077,175805
8.67702,173046
8.68328,170917
8.68953,164139
8.69578,164321
8.70205,164323
8.70830,178724
8.71455,200268
8.72082,207310
8.72707,193519
8.73332,168850
8.73958,155738
8.74583,162756
8.75208,165231
8.75835,159639
8.76460,125948
8.77085,108656
8.77712,98714
8.78337,101213
8.78962,100455
8.79588,92125
8.80213,90549
8.80838,88084
8.81463,88385
8.82090,87141
8.82715,106319
8.83340,206257
8.83967,594776
8.84592,1739310
8.85217,3950830
8.85843,6899667
8.86468,8657125
8.87093,7748082
8.87720,5813793
8.88345,4718265
8.88970,4624529
8.89597,4090093
8.90222,2361442
8.90847,939785
8.91473,400284
8.92098,218596
8.92723,151681
8.93350,135573
8.93975,121233
8.94600,124664
8.95227,138026
8.95852,170563
8.96477,215159
8.97103,249514
8.97728,264812
8.98353,271265
8.98980,299402
8.99605,369475
9.00230,511006
9.00857,682485
9.01482,766272
9.02107,656869
9.02732,430785
9.03358,322781
9.03983,368924
9.04608,489533
9.05235,525492
9.05860,420975
9.06485,277605
9.07112,193687
9.07737,154752
9.08362,143147
9.08988,141473
9.09613,151746
9.10238,164154
9.10865,159707
9.11490,141097
9.12115,119505
9.12742,107980
9.13367,107796
9.13992,118984
9.14618,134231
9.15243,149487
9.15868,187764
9.16495,240641
9.17120,279408
9.17745,281571
9.18372,288834
9.18997,344204
9.19622,370596
9.20248,346984
9.20873,247540
9.21498,165875
9.22125,126407
9.22750,107822
9.23375,119629
9.24002,157102
9.24627,208022
9.25252,238971
9.25877,218615
9.26503,167853
9.27128,118598
9.27753,98179
9.28380,98160
9.29005,111544
9.29630,140751
9.30257,192819
9.30882,241822
9.31507,264155
9.32133,269992
9.32758,275064
9.33383,302131
9.34010,430008
9.34635,715840
9.35260,996409
9.35887,1002509
9.36512,717867
9.37137,426341
9.37763,509797
9.38388,1647682
9.39013,4763725
9.39640,9342754
9.40265,1.234652E+07
9.40890,1.116238E+07
9.41517,6193858
9.42142,2094918
9.42767,754577
9.43393,1130875
9.44018,3685679
9.44643,9695556
9.45270,1.858582E+07
9.45895,2.529642E+07
9.46520,2.574072E+07
9.47145,1.768939E+07
9.47772,7243980
9.48397,1959866
9.49022,576235
9.49648,285102
9.50273,201504
9.50898,172436
9.51525,166901
9.52150,169496
9.52775,168932
9.53402,156542
9.54027,155810
9.54652,154166
9.55278,150556
9.55903,143070
9.56528,150299
9.57155,163372
9.57780,180508
9.58405,173339
9.59032,163232
9.59657,155685
9.60282,160139
9.60908,187098
9.61533,224854
9.62158,236559
9.62785,202220
9.63410,161163
9.64035,137058
9.64662,130913
9.65287,137568
9.65912,139948
9.66538,129825
9.67163,133510
9.67788,260711
9.68415,957163
9.69040,3172872
9.69665,7104860
9.70290,1.074188E+07
9.70917,1.101241E+07
9.71542,7360363
9.72167,3013520
9.72793,1616383
9.73418,2268440
9.74043,3158227
9.74670,3221313
9.75295,2169569
9.75920,982490
9.76547,377673
9.77172,201761
9.77797,158695
9.78423,143676
9.79048,124605
9.79673,113561
9.80300,107401
9.80925,106760
9.81550,111939
9.82177,107053
9.82802,107669
9.83427,115715
9.84053,141108
9.84678,185713
9.85303,328207
9.85930,978399
9.86555,2931397
9.87180,6697577
9.87807,1.034798E+07
9.88432,1.121505E+07
9.89057,7863452
9.89683,3330263
9.90308,1351561
9.90933,1162921
9.91558,1370897
9.92185,1163659
9.92810,674838
9.93435,308351
9.94062,179466
9.94687,151645
9.95312,168254
9.95938,229110
9.96563,389149
9.97188,664557
9.97815,885367
9.98440,928398
9.99065,851385
9.99692,698615
10.00317,522157
10.00942,365813
10.01568,274132
10.02193,227772
10.02818,203920
10.03445,167704
10.04070,153052
10.04695,145051
10.05322,149209
10.05947,142499
10.06572,122244
10.07198,120033
10.07823,113364
10.08448,114092
10.09075,131750
10.09700,149904
10.10325,166892
10.10952,168992
10.11577,172262
10.12202,163604
10.12828,151034
10.13453,133759
10.14078,117532
10.14703,114804
10.15330,111289
10.15955,113037
10.16580,109948
10.17207,113021
10.17832,116830
10.18457,130875
10.19083,136630
10.19708,134510
10.20333,120867
10.20960,113688
10.21585,123856
10.22210,176442
10.22837,279658
10.23462,393961
10.24087,457668
10.24713,429754
10.25338,357098
10.25963,275603
10.26590,228126
10.27215,201445
10.27840,177444
10.28467,165362
10.29092,210175
10.29717,264476
10.30343,278316
10.30968,232080
10.31593,173090
10.32220,153881
10.32845,172605
10.33470,241980
10.34097,317894
10.34722,326938
10.35347,249351
10.35972,180692
10.36598,151512
10.37223,141374
10.37848,130804
10.38475,120127
10.39100,112461
10.39725,106341
10.40352,101175
10.40977,95115
10.41602,97027
10.42228,102356
10.42853,114836
10.43478,118011
10.44105,118663
10.44730,122545
10.45355,128085
10.45982,127705
10.46607,129940
10.47232,132841
10.47858,147770
10.48483,191637
10.49108,246192
10.49735,255288
10.50360,214342
10.50985,161336
10.51612,123992
10.52237,107826
10.52862,118739
10.53488,149948
10.54113,190453
10.54738,213888
10.55365,197559
10.55990,167045
10.56615,155492
10.57242,175173
10.57867,202340
10.58492,222884
10.59117,220660
10.59743,219880
10.60368,314602
10.60993,890605
10.61620,2628810
10.62245,5989105
10.62870,9534820
10.63497,1.032333E+07
10.64122,7173149
10.64747,3170028
10.65373,997931
10.65998,319913
10.66623,186188
10.67250,169845
10.67875,181404
10.68500,185210
10.69127,169550
10.69752,145044
10.70377,122637
10.71003,117403
10.71628,115748
10.72253,125399
10.72880,137123
10.73505,150021
10.74130,156729
10.74757,157015
10.75382,148238
10.76007,147833
10.76633,140737
10.77258,147298
10.77883,156068
10.78510,158916
10.79135,159411
10.79760,148188
10.80385,156945
10.81012,199441
10.81637,295999
10.82262,412835
10.82888,429393
10.83513,341172
10.84138,218511
10.84765,154968
10.85390,142223
10.86015,152401
10.86642,155267
10.87267,164979
10.87892,159807
10.88518,152915
10.89143,152154
10.89768,157386
10.90395,181486
10.91020,202374
10.91645,204450
10.92272,188447
10.92897,166612
10.93522,160309
10.94148,145958
10.94773,128958
10.95398,117980
10.96025,144729
10.96650,296579
10.97275,917174
10.97902,2755592
10.98527,6533099
10.99152,1.177325E+07
10.99778,1.614007E+07
11.00403,1.574041E+07
11.01028,1.006985E+07
11.01653,3738520
11.02280,926877
11.02905,284746
11.03530,210117
11.04157,225806
11.04782,240116
11.05407,254690
11.06033,282979
11.06658,293406
11.07283,267332
11.07910,206727
11.08535,154659
11.09160,132103
11.09787,143002
11.10412,153667
11.11037,169427
11.11663,171814
11.12288,174188
11.12913,178078
11.13540,185324
11.14165,193805
11.14790,204584
11.15417,225465
11.16042,296741
11.16667,439734
11.17293,553028
11.17918,536114
11.18543,401276
11.19170,245296
11.19795,168431
11.20420,151859
11.21047,175136
11.21672,209242
11.22297,235346
11.22923,239595
11.23548,210386
11.24173,188911
11.24798,191660
11.25425,210371
11.26050,219425
11.26675,219595
11.27302,212809
11.27927,222752
11.28552,243340
11.29178,244936
11.29803,212063
11.30428,178261
11.31055,157661
11.31680,175875
11.32305,262748
11.32932,415607
11.33557,557726
11.34182,539211
11.34808,378733
11.35433,216876
11.36058,142513
11.36685,122274
11.37310,121252
11.37935,121584
11.38562,118981
11.39187,111015
11.39812,114495
11.40438,123830
11.41063,131807
11.41688,142454
11.42315,143658
11.42940,140669
11.43565,172768
11.44192,256133
11.44817,431661
11.45442,618520
11.46067,649267
11.46693,514363
11.47318,324419
11.47943,211890
11.48570,181129
11.49195,171813
11.49820,160040
11.50447,151703
11.51072,137975
11.51697,132475
11.52323,125481
11.52948,122030
11.53573,123382
11.54200,126322
11.54825,128468
11.55450,125428
11.56077,120170
11.56702,117010
11.57327,113443
11.57953,113486
11.58578,119652
11.59203,122381
11.59830,128571
11.60455,127888
11.61080,128249
11.61707,126270
11.62332,125179
11.62957,128009
11.63583,127627
11.64208,131611
11.64833,146155
11.65460,158185
11.66085,172564
11.66710,176525
11.67335,164506
11.67962,148762
11.68587,144299
11.69212,142121
11.69838,144567
11.70463,165771
11.71088,206256
11.71715,265050
11.72340,308205
11.72965,303017
11.73592,258118
11.74217,206566
11.74842,170664
11.75468,147733
11.76093,142400
11.76718,154439
11.77345,176992
11.77970,194517
11.78595,203405
11.79222,210897
11.79847,208651
11.80472,208937
11.81098,193579
11.81723,185794
11.82348,179198
11.82975,209612
11.83600,310783
11.84225,479880
11.84852,571509
11.85477,514114
11.86102,374501
11.86728,259310
11.87353,196656
11.87978,188658
11.88605,224598
11.89230,298851
11.89855,369880
11.90480,382885
11.91107,337949
11.91732,266187
11.92357,217759
11.92983,188691
11.93608,205785
11.94233,288852
11.94860,576647
11.95485,1284758
11.96110,2721928
11.96737,4505627
11.97362,5537682
11.97987,4761465
11.98613,2797737
11.99238,1022472
11.99863,421466
12.00490,321834
12.01115,326129
12.01740,322520
12.02367,301039
12.02992,294692
12.03617,308796
12.04243,370665
12.04868,498195
12.05493,637046
12.06120,745643
12.06745,712075
12.07370,571415
12.07997,427904
12.08622,351574
12.09247,352916
12.09873,366158
12.10498,362271
12.11123,332187
12.11748,276196
12.12375,222814
12.13000,199026
12.13625,192370
12.14252,188145
12.14877,176257
12.15502,173057
12.16128,169861
12.16753,171589
12.17378,172713
12.18005,174797
12.18630,182770
12.19255,205640
12.19882,259605
12.20507,322631
12.21132,404149
12.21758,471807
12.22383,517781
12.23008,491476
12.23635,416550
12.24260,379823
12.24885,434308
12.25512,610270
12.26137,944368
12.26762,1385383
12.27388,1784935
12.28013,1963153
12.28638,1671581
12.29265,1055224
12.29890,555574
12.30515,293019
12.31142,186036
12.31767,149663
12.32392,141236
12.33018,145332
12.33643,158188
12.34268,188140
12.34893,220504
12.35520,250063
12.36145,257514
12.36770,248326
12.37397,231886
12.38022,235252
12.38647,280221
12.39273,337184
12.39898,353769
12.40523,320980
12.41150,255190
12.41775,213927
12.42400,200314
12.43027,213351
12.43652,246532
12.44277,276137
12.44903,264716
12.45528,239277
12.46153,215558
12.46780,219484
12.47405,273111
12.48030,461136
12.48657,882988
12.49282,1579602
12.49907,2204853
12.50533,2300812
12.51158,1737382
12.51783,954225
12.52410,427803
12.53035,224800
12.53660,188209
12.54287,216961
12.54912,251719
12.55537,256247
12.56162,240911
12.56788,233825
12.57413,312357
12.58038,545299
12.58665,1021631
12.59290,1593713
12.59915,1975365
12.60542,1809175
12.61167,1504023
12.61792,1581740
12.62418,2123989
12.63043,3026172
12.63668,4259356
12.64295,5879857
12.64920,8168380
12.65545,1.13065E+07
12.66172,1.577705E+07
12.66797,2.08508E+07
12.67422,2.510385E+07
12.68048,2.553178E+07
12.68673,2.359411E+07
12.69298,1.50103E+07
12.69925,4587136
12.70550,1019456
12.71175,534513
12.71802,639887
12.72427,829543
12.73052,881346
12.73678,813287
12.74303,749186
12.74928,711154
12.75555,613760
12.76180,507560
12.76805,438127
12.77432,383494
12.78057,348482
12.78682,326290
12.79307,332944
12.79933,335554
12.80558,322272
12.81183,286215
12.81810,258917
12.82435,244052
12.83060,250258
12.83687,253345
12.84312,241614
12.84937,237480
12.85563,227403
12.86188,225701
12.86813,222837
12.87440,224280
12.88065,247508
12.88690,304683
12.89317,441741
12.89942,646630
12.90567,726888
12.91193,645903
12.91818,498126
12.92443,374858
12.93070,292070
12.93695,237674
12.94320,207735
12.94947,192085
12.95572,187572
12.96197,181596
12.96823,178861
12.97448,172480
12.98073,178132
12.98700,188404
12.99325,201850
12.99950,225251
13.00575,241767
13.01202,248711
13.01827,266675
13.02452,309582
13.03078,402777
13.03703,546389
13.04328,638708
13.04955,601249
13.05580,455117
13.06205,342757
13.06832,373693
13.07457,652490
13.08082,1269772
13.08708,2248043
13.09333,2947374
13.09958,2792232
13.10585,1929156
13.11210,1039399
13.11835,576801
13.12462,404125
13.13087,316076
13.13712,283991
13.14338,278887
13.14963,279144
13.15588,264959
13.16215,245331
13.16840,226592
13.17465,215099
13.18092,203413
13.18717,189376
13.19342,185047
13.19968,177731
13.20593,174389
13.21218,178047
13.21845,183274
13.22470,194769
13.23095,211245
13.23720,232472
13.24347,255012
13.24972,256835
13.25597,250771
13.26223,264316
13.26848,283502
13.27473,287952
13.28100,278023
13.28725,280681
13.29350,330804
13.29977,472054
13.30602,742679
13.31227,1111686
13.31853,1331729
13.32478,1187666
13.33103,769071
13.33730,417776
13.34355,273966
13.34980,242662
13.35607,255483
13.36232,261311
13.36857,244246
13.37483,227078
13.38108,209315
13.38733,193904
13.39360,181945
13.39985,181233
13.40610,184449
13.41237,185681
13.41862,197597
13.42487,218001
13.43113,252039
13.43738,293542
13.44363,324550
13.44988,338742
13.45615,305015
13.46240,271355
13.46865,237809
13.47492,219606
13.48117,213399
13.48742,215622
13.49368,226147
13.49993,226141
13.50618,220841
13.51245,223589
13.51870,226632
13.52495,241572
13.53122,247391
13.53747,264477
13.54372,289532
13.54998,347511
13.55623,448787
13.56248,565253
13.56875,588965
13.57500,531320
13.58125,458616
13.58752,458260
13.59377,572144
13.60002,775232
13.60628,1036449
13.61253,1231497
13.61878,1170079
13.62505,961446
13.63130,724034
13.63755,526612
13.64382,403851
13.65007,333394
13.65632,313090
13.66257,299679
13.66883,299325
13.67508,288074
13.68133,293260
13.68760,306169
13.69385,332697
13.70010,355587
13.70637,349287
13.71262,315533
13.71887,285322
13.72513,271288
13.73138,270341
13.73763,278995
13.74390,284237
13.75015,301284
13.75640,401828
13.76267,614217
13.76892,927755
13.77517,1175292
13.78143,1077194
13.78768,720812
13.79393,495624
13.80020,547010
13.80645,991157
13.81270,2054437
13.81897,3886138
13.82522,6448504
13.83147,1.046049E+07
13.83773,1.597796E+07
13.84398,2.165957E+07
13.85023,2.430175E+07
13.85650,1.930908E+07
13.86275,8062357
13.86900,1718147
13.87527,433542
13.88152,299324
13.88777,383839
13.89402,680411
13.90028,1370387
13.90653,2772485
13.91278,5020373
13.91905,7148191
13.92530,8015887
13.93155,6242421
13.93782,3249314
13.94407,1101210
13.95032,343218
13.95658,190702
13.96283,173482
13.96908,168376
13.97535,166172
13.98160,160241
13.98785,165607
13.99412,169887
14.00037,173979
14.00662,188284
14.01288,218917
14.01913,242421
14.02538,248187
14.03165,215659
14.03790,174748
14.04415,151384
14.05042,141334
14.05667,149737
14.06292,163245
14.06918,177309
14.07543,200852
14.08168,200900
14.08795,192478
14.09420,160473
14.10045,142629
14.10670,128347
14.11297,125749
14.11922,132049
14.12547,138519
14.13173,150000
14.13798,151831
14.14423,151281
14.15050,142346
14.15675,144807
14.16300,143140
14.16927,144552
14.17552,137553
14.18177,130129
14.18803,123740
14.19428,129653
14.20053,135041
14.20680,142109
14.21305,159039
14.21930,189800
14.22557,244850
14.23182,285622
14.23807,292984
14.24433,259002
14.25058,210138
14.25683,172875
14.26310,182017
14.26935,241123
14.27560,384809
14.28187,524535
14.28812,581357
14.29437,458604
14.30063,313570
14.30688,232662
14.31313,204295
14.31938,227549
14.32565,304507
14.33190,393828
14.33815,427795
14.34442,369670
14.35067,290467
14.35692,205852
14.36318,171298
14.36943,162141
14.37568,164894
14.38195,165514
14.38820,180542
14.39445,202556
14.40072,269526
14.40697,466693
14.41322,1034051
14.41948,2312609
14.42573,4063249
14.43198,5156386
14.43825,4682931
14.44450,3039488
14.45075,1617200
14.45702,1039972
14.46327,848184
14.46952,819623
14.47578,809921
14.48203,836887
14.48828,807802
14.49455,710877
14.50080,504680
14.50705,340763
14.51332,237463
14.51957,206112
14.52582,196242
14.53208,203786
14.53833,202852
14.54458,196212
14.55083,194479
14.55710,193621
14.56335,198985
14.56960,205603
14.57587,212381
14.58212,219416
14.58837,208681
14.59463,189799
14.60088,171920
14.60713,171820
14.61340,175840
14.61965,182633
14.62590,187310
14.63217,185583
14.63842,217628
14.64467,282376
14.65093,390618
14.65718,460874
14.66343,435723
14.66970,363664
14.67595,296396
14.68220,255118
14.68847,237655
14.69472,260637
14.70097,327880
14.70723,399921
14.71348,436582
14.71973,451883
14.72600,528114
14.73225,783411
14.73850,1252449
14.74477,1741981
14.75102,2030835
14.75727,1995139
14.76352,2080934
14.76978,2076831
14.77603,1672395
14.78228,1005398
14.78855,505264
14.79480,365996
14.80105,572140
14.80732,1259223
14.81357,2362694
14.81982,3109586
14.82608,2728416
14.83233,1632508
14.83858,699823
14.84485,292251
14.85110,194779
14.85735,189692
14.86362,227400
14.86987,286288
14.87612,314869
14.88238,296160
14.88863,258318
14.89488,218994
14.90115,206708
14.90740,222185
14.91365,317484
14.91992,491793
14.92617,656981
14.93242,709631
14.93868,617263
14.94493,503332
14.95118,380390
14.95745,336278
14.96370,402058
14.96995,654984
14.97622,1234190
14.98247,2069200
14.98872,2513939
14.99497,2165967
15.00123,1299121
15.00748,633636
15.01373,338471
15.02000,236391
15.02625,208935
15.03250,194948
15.03877,192478
15.04502,207122
15.05127,226025
15.05753,243230
15.06378,253108
15.07003,250251
15.07630,240027
15.08255,223707
15.08880,224232
15.09507,239900
15.10132,275544
15.10757,310499
15.11383,334853
15.12008,362372
15.12633,433745
15.13260,528063
15.13885,653218
15.14510,775194
15.15137,850409
15.15762,896638
15.16387,1052215
15.17013,1755628
15.17638,2829163
15.18263,3472147
15.18890,3166257
15.19515,1973239
15.20140,986784
15.20765,502387
15.21392,334143
15.22017,242123
15.22642,191164
15.23268,165323
15.23893,165811
15.24518,168697
15.25145,182789
15.25770,198285
15.26395,212217
15.27022,206862
15.27647,191160
15.28272,172120
15.28898,157205
15.29523,158472
15.30148,163530
15.30775,169410
15.31400,179666
15.32025,214424
15.32652,260415
15.33277,292064
15.33902,277690
15.34528,235805
15.35153,195071
15.35778,191560
15.36405,215777
15.37030,246716
15.37655,245808
15.38282,222997
15.38907,195490
15.39532,175215
15.40158,162329
15.40783,142329
15.41408,144776
15.42035,153692
15.42660,184474
15.43285,232122
15.43910,318976
15.44537,445168
15.45162,611896
15.45787,808705
15.46413,941690
15.47038,747057
15.47663,505614
15.48290,301591
15.48915,212579
15.49540,172519
15.50167,183694
15.50792,214324
15.51417,291288
15.52043,510775
15.52668,1155996
15.53293,2468882
15.53920,4012859
15.54545,5651035
15.55170,7776234
15.55797,1.059763E+07
15.56422,1.290879E+07
15.57047,1.133517E+07
15.57673,5981375
15.58298,2014922
15.58923,655737
15.59550,371870
15.60175,324259
15.60800,312717
15.61427,318202
15.62052,329794
15.62677,304757
15.63303,292608
15.63928,274497
15.64553,272090
15.65178,250606
15.65805,221692
15.66430,213668
15.67055,208375
15.67682,203966
15.68307,215722
15.68932,223896
15.69558,220483
15.70183,220713
15.70808,218644
15.71435,207707
15.72060,184640
15.72685,171419
15.73312,164690
15.73937,169614
15.74562,179278
15.75188,190553
15.75813,202039
15.76438,189713
15.77065,173368
15.77690,153874
15.78315,136077
15.78942,130931
15.79567,128784
15.80192,135379
15.80818,139589
15.81443,137857
15.82068,143976
15.82695,161485
15.83320,197289
15.83945,284951
15.84572,449253
15.85197,676677
15.85822,756163
15.86448,612324
15.87073,400434
15.87698,244187
15.88323,187605
15.88950,179429
15.89575,181555
15.90200,181578
15.90827,161621
15.91452,155534
15.92077,144668
15.92703,144898
15.93328,146561
15.93953,144406
15.94580,150252
15.95205,145994
15.95830,152986
15.96457,165418
15.97082,191650
15.97707,202030
15.98333,183709
15.98958,156074
15.99583,134410
16.00210,127355
16.00835,143329
16.01460,178903
16.02087,248743
16.02712,344617
16.03337,412520
16.03963,461229
16.04588,505057
16.05213,578979
16.05840,616047
16.06465,573385
16.07090,457765
16.07717,415538
16.08342,508515
16.08967,672709
16.09592,802640
16.10218,832853
16.10843,818233
16.11468,971195
16.12095,1495473
16.12720,2338661
16.13345,2896337
16.13972,2822722
16.14597,1927419
16.15222,930721
16.15848,457032
16.16473,299628
16.17098,267007
16.17725,259206
16.18350,255345
16.18975,251329
16.19602,290317
16.20227,336420
16.20852,345774
16.21478,294118
16.22103,232986
16.22728,251339
16.23355,391292
16.23980,672747
16.24605,897410
16.25232,820927
16.25857,570118
16.26482,338905
16.27108,233510
16.27733,196043
16.28358,179498
16.28985,175119
16.29610,189467
16.30235,239720
16.30860,358151
16.31487,467535
16.32112,493554
16.32737,409318
16.33363,296082
16.33988,219932
16.34613,186181
16.35240,176586
16.35865,168125
16.36490,169955
16.37117,172203
16.37742,170715
16.38367,160735
16.38993,164542
16.39618,163683
16.40243,162539
16.40870,159659
16.41495,161789
16.42120,165160
16.42747,169286
16.43372,214877
16.43997,332391
16.44623,614913
16.45248,984076
16.45873,1119460
16.46500,1005301
16.47125,700062
16.47750,503319
16.48377,379084
16.49002,306103
16.49627,253866
16.50253,231707
16.50878,240882
16.51503,298126
16.52130,419083
16.52755,559665
16.53380,633023
16.54005,588540
16.54632,480901
16.55257,378911
16.55882,317463
16.56508,290141
16.57133,275152
16.57758,252726
16.58385,245527
16.59010,254230
16.59635,259800
16.60262,264275
16.60887,250032
16.61512,253225
16.62138,258971
16.62763,271427
16.63388,293093
16.64015,307255
16.64640,340063
16.65265,371727
16.65892,406194
16.66517,376679
16.67142,326571
16.67768,298979
16.68393,298636
16.69018,305952
16.69645,314422
16.70270,288099
16.70895,268325
16.71522,239414
16.72147,219650
16.72772,217477
16.73398,228479
16.74023,236806
16.74648,256461
16.75273,310443
16.75900,443923
16.76525,751208
16.77150,1473640
16.77777,2989040
16.78402,5118733
16.79027,6548798
16.79653,6735836
16.80278,6228728
16.80903,5865403
16.81530,6231985
16.82155,6580995
16.82780,6848034
16.83407,7102739
16.84032,8359885
16.84657,9815931
16.85283,1.001991E+07
16.85908,7975510
16.86533,5792607
16.87160,4101463
16.87785,3480819
16.88410,3998676
16.89037,4919240
16.89662,5935369
16.90287,6424179
16.90913,5632118
16.91538,4268588
16.92163,3022095
16.92790,2526767
16.93415,2624875
16.94040,2964563
16.94667,3128354
16.95292,3199925
16.95917,3331310
16.96542,3584225
16.97168,3303897
16.97793,2761054
16.98418,1928714
16.99045,1319240
16.99670,1023394
17.00295,967745
17.00922,1230204
17.01547,2142706
17.02172,4363339
17.02798,8489480
17.03423,1.372662E+07
17.04048,1.859945E+07
17.04675,2.372343E+07
17.05300,2.970122E+07
17.05925,3.787622E+07
17.06552,4.505154E+07
17.07177,4.819237E+07
17.07802,4.800617E+07
17.08428,4.559702E+07
17.09053,4.321421E+07
17.09678,4.093908E+07
17.10305,3.96005E+07
17.10930,3.934877E+07
17.11555,4.517785E+07
17.12182,1.425174E+07
17.12807,6056236
17.13432,5855135
17.14058,5175942
17.14683,4248352
17.15308,4728758
17.15935,7997510
17.16560,1.500524E+07
17.17185,2.430925E+07
17.17812,3.117176E+07
17.18437,3.13842E+07
17.19062,2.093383E+07
17.19687,8147772
17.20313,2927344
17.20938,1959702
17.21563,2248020
17.22190,2885495
17.22815,3851284
17.23440,5409037
17.24067,9132192
17.24692,1.628256E+07
17.25317,2.782567E+07
17.25943,3.753022E+07
17.26568,4.372571E+07
17.27193,4.248963E+07
17.27820,3.019487E+07
17.28445,1.150769E+07
17.29070,5754050
17.29697,7673557
17.30322,1.088075E+07
17.30947,1.23476E+07
17.31573,1.041324E+07
17.32198,5685787
17.32823,2552897
17.33450,1365735
17.34075,995964
17.34700,862761
17.35327,801599
17.35952,754940
17.36577,708920
17.37203,668520
17.37828,662997
17.38453,657077
17.39080,672226
17.39705,713668
17.40330,768253
17.40955,918277
17.41582,1090706
17.42207,1163643
17.42832,1135041
17.43458,1053750
17.44083,1095273
17.44708,1422039
17.45335,2158455
17.45960,3094453
17.46585,3574839
17.47212,3018068
17.47837,1983839
17.48462,1129492
17.49088,745381
17.49713,646779
17.50338,633857
17.50965,649194
17.51590,736569
17.52215,843377
17.52842,867742
17.53467,786240
17.54092,630320
17.54718,536808
17.55343,542885
17.55968,671256
17.56595,1048785
17.57220,2040559
17.57845,4047876
17.58472,6628965
17.59097,7988622
17.59722,6745251
17.60348,3990641
17.60973,1860874
17.61598,887201
17.62223,687112
17.62850,689617
17.63475,702268
17.64100,644151
17.64727,537026
17.65352,471706
17.65977,441136
17.66603,434635
17.67228,411926
17.67853,404484
17.68480,399331
17.69105,414234
17.69730,440905
17.70357,476158
17.70982,512209
17.71607,514940
17.72233,485477
17.72858,425296
17.73483,379579
17.74110,374072
17.74735,397532
17.75360,430773
17.75987,448629
17.76612,473990
17.77237,526816
17.77863,643518
17.78488,848296
17.79113,1276860
17.79740,2221264
17.80365,3837297
17.80990,6150130
17.81617,8196951
17.82242,8898561
17.82867,7464023
17.83493,4376738
17.84118,2237734
17.84743,1253162
17.85368,855409
17.85995,753530
17.86620,1164147
17.87245,2500844
17.87872,4538155
17.88497,6883880
17.89122,6902029
17.89748,4812476
17.90373,2340276
17.90998,1063190
17.91625,589039
17.92250,466059
17.92875,416550
17.93502,396092
17.94127,379892
17.94752,368369
17.95378,354494
17.96003,350491
17.96628,353629
17.97255,365427
17.97880,365655
17.98505,379784
17.99132,410527
17.99757,458008
18.00382,545212
18.01008,633597
18.01633,727117
18.02258,723112
18.02885,631043
18.03510,498970
18.04135,417185
18.04762,378624
18.05387,361832
18.06012,339722
18.06637,317800
18.07263,295877
18.07888,287404
18.08513,294084
18.09140,316883
18.09765,376908
18.10390,462170
18.11017,553294
18.11642,607141
18.12267,598139
18.12893,681543
18.13518,1091482
18.14143,2087562
18.14770,3323115
18.15395,3910717
18.16020,3212896
18.16647,1778819
18.17272,812908
18.17897,454131
18.18523,331187
18.19148,288500
18.19773,269154
18.20400,271655
18.21025,272669
18.21650,289334
18.22277,309810
18.22902,320259
18.23527,314796
18.24153,294380
18.24778,275266
18.25403,269258
18.26030,273636
18.26655,285533
18.27280,304783
18.27907,340763
18.28532,391358
18.29157,480543
18.29782,691948
18.30408,1022365
18.31033,1168452
18.31658,1072853
18.32285,827064
18.32910,556903
18.33535,388633
18.34162,295967
18.34787,244881
18.35412,240218
18.36038,247819
18.36663,254697
18.37288,262752
18.37915,274674
18.38540,310789
18.39165,358277
18.39792,402424
18.40417,394833
18.41042,375674
18.41668,372917
18.42293,362991
18.42918,337166
18.43545,297014
18.44170,277873
18.44795,260297
18.45422,245095
18.46047,229721
18.46672,220806
18.47298,214217
18.47923,213469
18.48548,204960
18.49175,205203
18.49800,207124
18.50425,207017
18.51050,215049
18.51677,220468
18.52302,220107
18.52927,221201
18.53553,217475
18.54178,220429
18.54803,225559
18.55430,239051
18.56055,253751
18.56680,249161
18.57307,245581
18.57932,232335
18.58557,221454
18.59183,213602
18.59808,222551
18.60433,236820
18.61060,254143
18.61685,288954
18.62310,313573
18.62937,297686
18.63562,273485
18.64187,249209
18.64813,246101
18.65438,243849
18.66063,245841
18.66690,255867
18.67315,272748
18.67940,277054
18.68567,274974
18.69192,252259
18.69817,223041
18.70443,227572
18.71068,256669
18.71693,288477
18.72320,303515
18.72945,287151
18.73570,262957
18.74195,228140
18.74822,210520
18.75447,206141
18.76072,206313
18.76698,199518
18.77323,195665
18.77948,191629
18.78575,192240
18.79200,185298
18.79825,181538
18.80452,188802
18.81077,198839
18.81702,204015
18.82328,211313
18.82953,206034
18.83578,201354
18.84205,198011
18.84830,188619
18.85455,184912
18.86082,195211
18.86707,227354
18.87332,335843
18.87958,676386
18.88583,1649260
18.89208,3745809
18.89835,6755091
18.90460,9100968
18.91085,8598125
18.91712,6385527
18.92337,3224276
18.92962,1217986
18.93588,507398
18.94213,347841
18.94838,316650
18.95463,288305
18.96090,257799
18.96715,222359
18.97340,207856
18.97967,190015
18.98592,179831
18.99217,183923
18.99843,192134
19.00468,207153
19.01093,218818
19.01720,233334
19.02345,235599
19.02970,215624
19.03597,206879
19.04222,210115
19.04847,226270
19.05473,233977
19.06098,232054
19.06723,222944
19.07350,210286
19.07975,217126
19.08600,238119
19.09227,255624
19.09852,268756
19.10477,262391
19.11103,261827
19.11728,264051
19.12353,262982
19.12980,269606
19.13605,269051
19.14230,274905
19.14857,267281
19.15482,250381
19.16107,229002
19.16733,209515
19.17358,195434
19.17983,186042
19.18608,182384
19.19235,185624
19.19860,196700
19.20485,195997
19.21112,198213
19.21737,190703
19.22362,186901
19.22988,181766
19.23613,173604
19.24238,166877
19.24865,163658
19.25490,162231
19.26115,160115
19.26742,164019
19.27367,160122
19.27992,157105
19.28618,171804
19.29243,182884
19.29868,189798
19.30495,192163
19.31120,183281
19.31745,168630
19.32372,161506
19.32997,153059
19.33622,157250
19.34248,167604
19.34873,184960
19.35498,205016
19.36125,217521
19.36750,212181
19.37375,211536
19.38002,202781
19.38627,199920
19.39252,199396
19.39877,210942
19.40503,222785
19.41128,232117
19.41753,242317
19.42380,237482
19.43005,229103
19.43630,207353
19.44257,202265
19.44882,204737
19.45507,207046
19.46133,201208
19.46758,186478
19.47383,181100
19.48010,174931
19.48635,176881
19.49260,182577
19.49887,191415
19.50512,201699
19.51137,204920
19.51763,219839
19.52388,222156
19.53013,229112
19.53640,221665
19.54265,233432
19.54890,262126
19.55517,323014
19.56142,364079
19.56767,354312
19.57393,306313
19.58018,245137
19.58643,202112
19.59270,187983
19.59895,175551
19.60520,167528
19.61145,166680
19.61772,163498
19.62397,171801
19.63022,186737
19.63648,222516
19.64273,255905
19.64898,278523
19.65525,273822
19.66150,239264
19.66775,226480
19.67402,234258
19.68027,278547
19.68652,311008
19.69278,303545
19.69903,277900
19.70528,251090
19.71155,243529
19.71780,247945
19.72405,250119
19.73032,246905
19.73657,241634
19.74282,243969
19.74908,239856
19.75533,234945
19.76158,234811
19.76785,255179
19.77410,292258
19.78035,333198
19.78662,349505
19.79287,319440
19.79912,266316
19.80538,240041
19.81163,228900
19.81788,218091
19.82415,191592
19.83040,178972
19.83665,165773
19.84290,166434
19.84917,165030
19.85542,180146
19.86167,211252
19.86793,258694
19.87418,304728
19.88043,319892
19.88670,286352
19.89295,244757
19.89920,222258
19.90547,261813
19.91172,497383
19.91797,1183234
19.92423,2560394
19.93048,4245493
19.93673,5013043
19.94300,4041589
19.94925,2268704
19.95550,961130
19.96177,435224
19.96802,310497
19.97427,343889
19.98053,418301
19.98678,487816
19.99303,489642
19.99930,434684
20.00555,367564
20.01180,299613
20.01807,261459
20.02432,227554
20.03057,206147
20.03683,199039
20.04308,212136
20.04933,236266
20.05558,272112
20.06185,285685
20.06810,265774
20.07435,228224
20.08062,196348
20.08687,192243
20.09312,210171
20.09938,230693
20.10563,250853
20.11188,253810
20.11815,230467
20.12440,201891
20.13065,191732
20.13692,182352
20.14317,180460
20.14942,190996
20.15568,198155
20.16193,203169
20.16818,200926
20.17445,199503
20.18070,191996
20.18695,191245
20.19322,198928
20.19947,210211
20.20572,219413
20.21198,225359
20.21823,231715
20.22448,234999
20.23075,247147
20.23700,252149
20.24325,260141
20.24952,254201
20.25577,238184
20.26202,228498
20.26827,219454
20.27453,217607
20.28078,211172
20.28703,233751
20.29330,316197
20.29955,529178
20.30580,893388
20.31207,1333053
20.31832,1441155
20.32457,1177764
20.33083,758924
20.33708,443391
20.34333,310625
20.34960,303611
20.35585,319196
20.36210,317454
20.36837,289520
20.37462,253523
20.38087,226636
20.38713,222577
20.39338,218507
20.39963,219484
20.40590,212567
20.41215,207870
20.41840,227592
20.42467,270183
20.43092,429515
20.43717,766264
20.44343,1379657
20.44968,1980163
20.45593,2214623
20.46220,1779925
20.46845,1135524
20.47470,662972
20.48097,549723
20.48722,701575
20.49347,837507
20.49972,852996
20.50598,702725
20.51223,518364
20.51848,378790
20.52475,329459
20.53100,325891
20.53725,331792
20.54352,335499
20.54977,388567
20.55602,473877
20.56228,572694
20.56853,571045
20.57478,485482
20.58105,375167
20.58730,325430
20.59355,315202
20.59982,332887
20.60607,338328
20.61232,309030
20.61858,277586
20.62483,241956
20.63108,209910
20.63735,206306
20.64360,207056
20.64985,214594
20.65612,233860
20.66237,266357
20.66862,288362
20.67488,288166
20.68113,279543
20.68738,272284
20.69365,247855
20.69990,226771
20.70615,237532
20.71240,318739
20.71867,520356
20.72492,892408
20.73117,1309514
20.73743,1446977
20.74368,1224549
20.74993,812780
20.75620,562713
20.76245,516411
20.76870,689801
20.77497,938038
20.78122,1081271
20.78747,1032958
20.79373,740946
20.79998,505303
20.80623,373398
20.81250,301343
20.81875,265446
20.82500,237755
20.83127,236709
20.83752,238785
20.84377,246401
20.85003,258114
20.85628,259618
20.86253,258939
20.86880,261196
20.87505,260656
20.88130,246645
20.88757,236172
20.89382,238181
20.90007,247695
20.90633,254738
20.91258,265072
20.91883,270616
20.92510,276457
20.93135,302049
20.93760,411467
20.94385,672000
20.95012,1140819
20.95637,1403253
20.96262,1342776
20.96888,1037655
20.97513,723466
20.98138,546480
20.98765,421547
20.99390,354422
21.00015,306642
21.00642,301655
21.01267,352646
21.01892,423043
21.02518,467105
21.03143,447839
21.03768,397982
21.04395,349105
21.05020,330827
21.05645,326725
21.06272,327573
21.06897,303598
21.07522,306062
21.08148,341289
21.08773,379088
21.09398,384686
21.10025,356668
21.10650,293267
21.11275,246683
21.11902,232207
21.12527,226873
21.13152,227429
21.13778,223672
21.14403,212260
21.15028,209253
21.15653,206098
21.16280,203766
21.16905,208188
21.17530,207822
21.18157,218178
21.18782,220334
21.19407,223374
21.20033,222304
21.20658,229877
21.21283,235402
21.21910,237119
21.22535,235220
21.23160,239366
21.23787,245206
21.24412,273750
21.25037,303297
21.25663,323843
21.26288,306493
21.26913,284853
21.27540,284118
21.28165,340588
21.28790,427323
21.29417,472521
21.30042,456066
21.30667,381144
21.31293,301457
21.31918,246806
21.32543,236580
21.33170,249382
21.33795,265977
21.34420,261452
21.35047,246614
21.35672,242229
21.36297,257303
21.36923,328075
21.37548,427566
21.38173,476528
21.38798,442176
21.39425,360210
21.40050,266685
21.40675,216640
21.41302,194724
21.41927,189288
21.42552,195839
21.43178,208398
21.43803,216388
21.44428,225801
21.45055,241535
21.45680,294866
21.46305,403978
21.46932,550475
21.47557,636545
21.48182,588799
21.48808,473758
21.49433,387529
21.50058,339265
21.50685,330032
21.51310,330913
21.51935,306187
21.52562,257638
21.53187,209446
21.53812,190647
21.54438,180413
21.55063,178089
21.55688,181041
21.56315,175107
21.56940,180781
21.57565,196960
21.58192,218007
21.58817,231559
21.59442,241678
21.60067,275090
21.60693,302378
21.61318,305320
21.61943,262070
21.62570,216063
21.63195,183625
21.63820,166524
21.64447,151347
21.65072,144759
21.65697,144545
21.66323,139120
21.66948,141917
21.67573,150110
21.68200,168767
21.68825,183347
21.69450,188293
21.70077,186572
21.70702,177322
21.71327,159415
21.71953,148728
21.72578,143744
21.73203,146137
21.73830,144778
21.74455,149309
21.75080,149105
21.75707,160535
21.76332,172028
21.76957,174327
21.77583,175678
21.78208,176026
21.78833,185389
21.79460,205359
21.80085,219664
21.80710,230291
21.81337,227977
21.81962,221910
21.82587,215160
21.83212,203644
21.83838,196820
21.84463,191562
21.85088,200336
21.85715,209766
21.86340,230503
21.86965,265144
21.87592,293156
21.88217,295130
21.88842,258644
21.89468,217100
21.90093,192872
21.90718,181358
21.91345,187055
21.91970,194230
21.92595,201082
21.93222,181038
21.93847,172004
21.94472,168935
21.95098,167889
21.95723,170489
21.96348,157919
21.96975,159179
21.97600,156173
21.98225,167274
21.98852,173107
21.99477,174956
22.00102,183745
22.00728,180366
22.01353,185204
22.01978,188218
22.02605,192404
22.03230,193138
22.03855,210072
22.04480,236820
22.05107,261007
22.05732,279229
22.06357,305676
22.06983,312501
22.07608,317217
22.08233,299479
22.08860,265662
22.09485,243697
22.10110,222641
22.10737,217016
22.11362,213398
22.11987,210519
22.12613,218647
22.13238,237353
22.13863,249341
22.14490,250923
22.15115,236106
22.15740,218238
22.16367,213059
22.16992,218396
22.17617,219378
22.18243,227640
22.18868,228633
22.19493,244789
22.20120,250242
22.20745,240056
22.21370,226341
22.21997,209230
22.22622,199698
22.23247,192529
22.23873,199527
22.24498,221454
22.25123,258861
22.25748,341403
22.26375,468991
22.27000,572601
22.27625,569914
22.28252,504185
22.28877,403167
22.29502,329396
22.30128,288320
22.30753,269176
22.31378,257168
22.32005,243460
22.32630,252815
22.33255,259669
22.33882,274785
22.34507,264764
22.35132,262842
22.35758,298176
22.36383,398703
22.37008,545385
22.37635,729129
22.38260,762219
22.38885,618591
22.39512,432191
22.40137,317496
22.40762,261418
22.41388,250182
22.42013,254117
22.42638,265581
22.43265,281931
22.43890,322196
22.44515,399666
22.45142,476630
22.45767,603753
22.46392,764904
22.47018,942268
22.47643,958795
22.48268,772332
22.48893,556685
22.49520,419878
22.50145,353276
22.50770,323266
22.51397,301153
22.52022,283652
22.52647,259534
22.53273,260569
22.53898,286466
22.54523,376655
22.55150,517234
22.55775,654274
22.56400,682535
22.57027,633511
22.57652,541460
22.58277,426339
22.58903,348540
22.59528,296195
22.60153,270146
22.60780,264485
22.61405,262731
22.62030,270432
22.62657,291643
22.63282,290376
22.63907,279602
22.64533,271064
22.65158,275396
22.65783,261576
22.66410,265755
22.67035,264778
22.67660,281742
22.68287,307109
22.68912,360329
22.69537,388685
22.70162,385091
22.70788,340885
22.71413,288431
22.72038,265740
22.72665,247995
22.73290,248900
22.73915,251181
22.74542,260045
22.75167,266618
22.75792,272711
22.76418,274130
22.77043,277040
22.77668,303698
22.78295,366267
22.78920,607087
22.79545,1495330
22.80172,3826536
22.80797,8251334
22.81422,1.359362E+07
22.82048,1.780119E+07
22.82673,1.638206E+07
22.83298,1.027219E+07
22.83925,4611592
22.84550,1811377
22.85175,882582
22.85802,562058
22.86427,452626
22.87052,399941
22.87678,366324
22.88303,354025
22.88928,329059
22.89555,314617
22.90180,299398
22.90805,298019
22.91430,298401
22.92057,288626
22.92682,282741
22.93307,280258
22.93933,284699
22.94558,286809
22.95183,296068
22.95810,287898
22.96435,281710
22.97060,264291
22.97687,269117
22.98312,289023
22.98937,311759
22.99563,322202
23.00188,317418
23.00813,292465
23.01440,277609
23.02065,253894
23.02690,240330
23.03317,232936
23.03942,232291
23.04567,236851
23.05193,245624
23.05818,257446
23.06443,309820
23.07070,457237
23.07695,766763
23.08320,1099761
23.08947,1348339
23.09572,1226044
23.10197,900599
23.10823,591310
23.11448,401076
23.12073,304123
23.12700,260668
23.13325,242641
23.13950,232232
23.14575,225705
23.15202,223665
23.15827,213641
23.16452,209559
23.17078,205730
23.17703,196902
23.18328,197980
23.18955,200467
23.19580,209258
23.20205,216318
23.20832,219323
23.21457,215799
23.22082,214350
23.22708,208373
23.23333,198780
23.23958,191795
23.24585,196105
23.25210,201819
23.25835,208024
23.26462,210349
23.27087,204938
23.27712,199711
23.28338,192517
23.28963,188238
23.29588,204552
23.30215,233484
23.30840,294171
23.31465,406261
23.32092,555622
23.32717,646636
23.33342,595521
23.33968,454791
23.34593,337717
23.35218,279775
23.35843,245347
23.36470,226021
23.37095,215234
23.37720,207593
23.38347,204591
23.38972,203885
23.39597,210975
23.40223,213991
23.40848,213311
23.41473,210484
23.42100,207405
23.42725,209461
23.43350,204871
23.43977,203988
23.44602,209537
23.45227,225283
23.45853,237161
23.46478,254975
23.47103,271242
23.47730,286308
23.48355,305501
23.48980,341587
23.49607,374114
23.50232,393009
23.50857,454144
23.51483,567511
23.52108,700170
23.52733,795468
23.53360,772787
23.53985,627362
23.54610,455822
23.55237,348614
23.55862,290167
23.56487,278509
23.57112,309453
23.57738,353704
23.58363,426555
23.58988,496291
23.59615,514994
23.60240,464476
23.60865,390360
23.61492,326144
23.62117,281965
23.62742,261079
23.63368,250026
23.63993,244534
23.64618,245564
23.65245,251519
23.65870,245350
23.66495,234002
23.67122,222785
23.67747,219376
23.68372,223777
23.68998,245678
23.69623,267307
23.70248,285740
23.70875,285764
23.71500,285342
23.72125,333875
23.72752,466400
23.73377,655692
23.74002,795049
23.74628,779950
23.75253,614964
23.75878,439404
23.76505,337228
23.77130,278496
23.77755,259152
23.78382,256512
23.79007,258440
23.79632,265047
23.80257,272870
23.80883,270436
23.81508,286313
23.82133,309540
23.82760,335173
23.83385,330917
23.84010,310145
23.84637,291858
23.85262,269914
23.85887,262349
23.86513,256672
23.87138,254747
23.87763,265351
23.88390,302669
23.89015,375598
23.89640,456401
23.90267,518674
23.90892,514780
23.91517,453942
23.92143,370596
23.92768,329605
23.93393,307281
23.94020,295911
23.94645,302077
23.95270,332590
23.95897,469219
23.96522,868166
23.97147,1853048
23.97773,3588210
23.98398,5997759
23.99023,9181210
23.99650,1.38676E+07
24.00275,2.070772E+07
24.00900,2.639285E+07
24.01525,2.47815E+07
24.02152,1.727903E+07
24.02777,9053753
24.03402,4095077
24.04028,2040270
24.04653,1311826
24.05278,996245
24.05905,788536
24.06530,644862
24.07155,595814
24.07782,600203
24.08407,603904
24.09032,600358
24.09658,592237
24.10283,712620
24.10908,1188844
24.11535,2197091
24.12160,3840009
24.12785,5266317
24.13412,5382214
24.14037,4207216
24.14662,2506447
24.15288,1418027
24.15913,839685
24.16538,567251
24.17165,475588
24.17790,438868
24.18415,447754
24.19042,520152
24.19667,646306
24.20292,964456
24.20918,1868669
24.21543,4346051
24.22168,9438342
24.22795,1.608956E+07
24.23420,2.394663E+07
24.24045,3.101406E+07
24.24670,3.689434E+07
24.25297,3.961059E+07
24.25922,4.128517E+07
24.26547,4.180377E+07
24.27173,4.166076E+07
24.27798,4.117752E+07
24.28423,3.5588E+07
24.29050,1.194994E+07
24.29675,3594429
24.30300,2132285
24.30927,1631930
24.31552,1361273
24.32177,1203405
24.32803,1099974
24.33428,1036545
24.34053,991474
24.34680,972674
24.35305,956254
24.35930,969048
24.36557,991066
24.37182,1028710
24.37807,1065661
24.38433,1103531
24.39058,1068318
24.39683,1008240
24.40310,923866
24.40935,849271
24.41560,789020
24.42187,772033
24.42812,775765
24.43437,854642
24.44063,1055824
24.44688,1312869
24.45313,1475231
24.45938,1442567
24.46565,1219961
24.47190,957877
24.47815,756050
24.48442,647318
24.49067,583430
24.49692,547468
24.50318,512901
24.50943,490016
24.51568,470574
24.52195,455986
24.52820,444666
24.53445,432450
24.54072,426715
24.54697,421732
24.55322,407719
24.55948,401941
24.56573,388006
24.57198,379796
24.57825,377663
24.58450,372806
24.59075,373018
24.59702,379669
24.60327,359979
24.60952,356342
24.61578,346351
24.62203,323230
24.62828,305573
24.63455,301328
24.64080,292910
24.64705,290345
24.65332,288582
24.65957,281063
24.66582,278777
24.67208,279182
24.67833,296145
24.68458,334545
24.69083,384923
24.69710,436369
24.70335,434725
24.70960,390617
24.71587,346082
24.72212,305797
24.72837,296444
24.73463,274764
24.74088,258014
24.74713,247384
24.75340,240009
24.75965,240171
24.76590,237728
24.77217,242932
24.77842,252409
24.78467,278735
24.79093,288100
24.79718,286964
24.80343,277745
24.80970,252669
24.81595,235449
24.82220,215924
24.82847,206680
24.83472,202782
24.84097,195971
24.84723,191628
24.85348,189546
24.85973,193492
24.86600,197958
24.87225,211084
24.87850,227064
24.88477,243008
24.89102,264794
24.89727,287429
24.90352,292688
24.90978,283286
24.91603,260740
24.92228,246773
24.92855,251826
24.93480,263170
24.94105,263436
24.94732,259343
24.95357,276358
24.95982,304638
24.96608,318625
24.97233,316717
24.97858,296932
24.98485,260282
24.99110,235964
24.99735,222712
25.00362,212796
25.00987,209798
25.01612,207081
25.02238,201014
25.02863,200723
25.03488,210066
25.04115,213608
25.04740,221632
25.05365,212350
25.05992,204448
25.06617,197998
25.07242,194955
25.07868,196836
25.08493,199597
25.09118,197172
25.09745,190416
25.10370,185970
25.10995,187168
25.11620,187682
25.12247,193529
25.12872,195498
25.13497,186592
25.14123,192845
25.14748,189986
25.15373,179751
25.16000,172966
25.16625,170306
25.17250,171809
25.17877,184021
25.18502,211158
25.19127,246835
25.19753,273476
25.20378,278371
25.21003,264766
25.21630,231031
25.22255,203103
25.22880,186203
25.23507,175856
25.24132,167969
25.24757,171105
25.25383,164331
25.26008,169309
25.26633,166960
25.27260,165684
25.27885,170745
25.28510,189848
25.29137,236274
25.29762,317898
25.30387,398979
25.31013,428742
25.31638,400895
25.32263,323768
25.32890,264038
25.33515,221873
25.34140,198453
25.34765,181319
25.35392,181297
25.36017,173794
25.36642,170375
25.37268,173414
25.37893,177893
25.38518,179927
25.39145,180405
25.39770,186305
25.40395,197336
25.41022,216454
25.41647,226552
25.42272,234691
25.42898,229052
25.43523,224008
25.44148,211021
25.44775,205603
25.45400,196733
25.46025,190422
25.46652,190122
25.47277,180834
25.47902,183464
25.48528,181593
25.49153,196753
25.49778,253498
25.50405,318976
25.51030,410368
25.51655,453086
25.52282,443508
25.52907,396751
25.53532,358711
25.54158,371137
25.54783,454202
25.55408,515496
25.56033,500761
25.56660,432357
25.57285,336432
25.57910,268103
25.58537,223744
25.59162,201609
25.59787,188885
25.60413,181538
25.61038,182037
25.61663,180551
25.62290,179810
25.62915,170768
25.63540,170379
25.64167,164786
25.64792,161986
25.65417,159785
25.66043,162618
25.66668,153907
25.67293,153940
25.67920,151377
25.68545,154932
25.69170,156033
25.69797,156586
25.70422,152447
25.71047,154673
25.71673,148993
25.72298,147733
25.72923,144764
25.73550,145542
25.74175,143900
25.74800,146438
25.75427,147440
25.76052,151072
25.76677,154580
25.77303,152660
25.77928,152925
25.78553,149247
25.79178,150251
25.79805,144831
25.80430,146425
25.81055,146196
25.81682,139559
25.82307,139234
25.82932,141291
25.83558,138265
25.84183,141799
25.84808,138174
25.85435,142360
25.86060,145225
25.86685,144985
25.87312,152184
25.87937,146488
25.88562,143927
25.89188,144706
25.89813,145365
25.90438,141492
25.91065,147057
25.91690,139931
25.92315,134712
25.92942,134311
25.93567,138879
25.94192,141188
25.94818,143570
25.95443,143867
25.96068,140779
25.96695,140749
25.97320,135016
25.97945,142136
25.98572,145127
25.99197,152659
25.99822,147654
26.00447,149412
26.01073,147625
26.01698,143144
26.02323,144642
26.02950,144803
26.03575,148502
26.04200,145333
26.04827,152664
26.05452,151069
26.06077,152143
26.06703,154127
26.07328,154303
26.07953,151231
26.08580,149858
26.09205,145164
26.09830,144736
26.10457,143608
26.11082,147506
26.11707,147632
26.12333,148344
26.12958,146306
26.13583,142783
26.14210,137746
26.14835,140816
26.15460,136286
26.16087,137437
26.16712,139317
26.17337,134202
26.17963,143027
26.18588,142519
26.19213,144633
26.19840,140947
26.20465,140845
26.21090,136274
26.21715,135820
26.22342,135338
26.22967,139477
26.23592,135856
26.24218,140070
26.24843,135290
26.25468,135690
26.26095,137594
26.26720,137485
26.27345,136709
26.27972,133237
26.28597,133883
26.29222,134468
26.29848,139128
26.30473,140708
26.31098,141045
26.31725,140366
26.32350,139193
26.32975,143156
26.33602,143944
26.34227,143558
26.34852,142428
26.35478,144002
26.36103,149424
26.36728,151386
26.37355,184862
26.37980,228770
26.38605,307002
26.39232,342944
26.39857,355605
26.40482,293439
26.41108,234914
26.41733,185727
26.42358,166124
26.42985,159931
26.43610,149432
26.44235,154928
26.44860,151033
26.45487,150049
26.46112,147313
26.46737,152760
26.47363,154514
26.47988,155643
26.48613,152878
26.49240,157991
26.49865,157656
26.50490,155009
26.51117,152452
26.51742,154868
26.52367,155777
26.52993,160039
26.53618,170385
26.54243,184813
26.54870,183117
26.55495,177159
26.56120,166430
26.56747,161307
26.57372,151911
26.57997,149455
26.58623,157639
26.59248,151676
26.59873,153969
26.60500,154667
26.61125,160618
26.61750,164516
26.62377,171448
26.63002,177966
26.63627,171073
26.64253,167377
26.64878,164575
26.65503,162382
26.66128,171128
26.66755,186892
26.67380,203154
26.68005,212028
26.68632,213393
26.69257,205786
26.69882,199906
26.70508,211237
26.71133,228943
26.71758,234974
26.72385,221567
26.73010,201336
26.73635,189962
26.74262,180741
26.74887,178533
26.75512,185624
26.76138,205112
26.76763,247710
26.77388,315481
26.78015,351217
26.78640,349002
26.79265,321935
26.79892,300149
26.80517,288230
26.81142,276731
26.81768,266187
26.82393,259567
26.83018,302024
26.83645,429750
26.84270,610541
26.84895,750736
26.85522,746623
26.86147,612127
26.86772,457244
26.87397,330523
26.88023,282357
26.88648,278219
26.89273,295956
26.89900,339983
26.90525,412296
26.91150,689284
26.91777,1503775
26.92402,3358494
26.93027,7117884
26.93653,1.244563E+07
26.94278,1.731951E+07
26.94903,2.026731E+07
26.95530,1.912018E+07
26.96155,1.169499E+07
26.96780,5441882
26.97407,2710348
26.98032,1642527
26.98657,1095382
26.99283,775340
26.99908,583286
27.00533,469332
27.01160,431766
27.01785,440168
27.02410,560230
27.03037,721728
27.03662,830695
27.04287,836392
27.04913,678340
27.05538,529934
27.06163,442345
27.06790,381346
27.07415,365194
27.08040,344335
27.08667,316660
27.09292,296595
27.09917,275361
27.10542,257107
27.11168,248055
27.11793,240492
27.12418,244869
27.13045,260148
27.13670,295859
27.14295,343960
27.14922,369186
27.15547,372755
27.16172,339586
27.16798,301133
27.17423,268751
27.18048,258924
27.18675,263785
27.19300,269301
27.19925,256754
27.20552,239676
27.21177,244115
27.21802,241822
27.22428,236866
27.23053,238788
27.23678,229617
27.24305,224382
27.24930,218825
27.25555,230656
27.26182,242142
27.26807,244733
27.27432,237719
27.28058,226206
27.28683,228532
27.29308,217452
27.29935,217326
27.30560,214216
27.31185,214839
27.31810,215506
27.32437,215301
27.33062,218736
27.33687,212043
27.34313,205480
27.34938,211623
27.35563,216918
27.36190,219992
27.36815,221028
27.37440,229954
27.38067,226451
27.38692,228721
27.39317,225345
27.39943,227846
27.40568,229077
27.41193,237184
27.41820,247955
27.42445,251172
27.43070,242613
27.43697,234970
27.44322,226768
27.44947,221209
27.45573,214496
27.46198,206751
27.46823,200129
27.47450,200537
27.48075,196104
27.48700,199624
27.49327,197694
27.49952,203274
27.50577,199117
27.51203,195030
27.51828,194722
27.52453,190188
27.53080,191520
27.53705,196076
27.54330,200807
27.54955,193816
27.55582,193344
27.56207,199003
27.56832,192574
27.57458,186131
27.58083,194043
27.58708,189580
27.59335,194838
27.59960,192203
27.60585,192164
27.61212,192291
27.61837,200177
27.62462,188194
27.63088,193202
27.63713,190128
27.64338,191935
27.64965,196457
27.65590,191883
27.66215,192248
27.66842,194434
27.67467,195952
27.68092,197225
27.68718,200535
27.69343,200224
27.69968,196988
27.70595,202603
27.71220,201025
27.71845,203899
27.72472,207311
27.73097,213116
27.73722,215108
27.74348,213064
27.74973,211073
27.75598,211111
27.76223,209422
27.76850,214124
27.77475,203695
27.78100,213183
27.78727,208902
27.79352,203207
27.79977,202485
27.80603,198023
27.81228,204960
27.81853,193882
27.82480,197597
27.83105,203113
27.83730,204119
27.84357,197610
27.84982,203397
27.85607,208845
27.86233,219379
27.86858,239611
27.87483,247934
27.88110,240359
27.88735,231286
27.89360,227751
27.89987,218563
27.90612,209771
27.91237,211490
27.91863,207461
27.92488,208007
27.93113,207147
27.93740,208325
27.94365,209644
27.94990,209280
27.95617,204275
27.96242,203177
27.96867,203771
27.97493,209587
27.98118,207306
27.98743,207922
27.99368,205979
27.99995,218605
28.00620,217945
28.01245,214549
28.01872,216368
28.02497,214319
28.03122,205689
28.03748,205714
28.04373,205880
28.04998,204617
28.05625,208291
28.06250,204515
28.06875,201276
28.07502,204897
28.08127,204585
28.08752,204657
28.09378,208909
28.10003,202005
28.10628,205578
28.11255,205353
28.11880,206884
28.12505,205596
28.13132,200964
28.13757,206249
28.14382,214418
28.15008,202209
28.15633,205341
28.16258,204613
28.16885,207777
28.17510,207231
28.18135,204944
28.18762,209910
28.19387,211299
28.20012,201417
28.20637,204928
28.21263,207607
28.21888,210061
28.22513,209103
28.23140,214979
28.23765,203772
28.24390,217997
28.25017,204748
28.25642,208114
28.26267,206445
28.26893,205797
28.27518,205727
28.28143,210746
28.28770,214517
28.29395,209491
28.30020,210185
28.30647,212912
28.31272,221742
28.31897,213723
28.32523,215848
28.33148,221062
28.33773,227361
28.34400,239617
28.35025,240210
28.35650,240947
28.36277,249747
28.36902,262610
28.37527,263804
28.38153,272149
28.38778,269970
28.39403,276008
28.40030,285325
28.40655,289324
28.41280,284736
28.41905,297668
28.42532,292399
28.43157,297942
28.43782,309645
28.44408,293845
28.45033,296307
28.45658,289150
28.46285,292208
28.46910,289745
28.47535,283756
28.48162,276433
28.48787,278748
28.49412,270752
28.50038,269013
28.50663,267013
28.51288,257454
28.51915,256478
28.52540,249181
28.53165,248490
28.53792,247065
28.54417,235080
28.55042,240538
28.55668,228151
28.56293,235331
28.56918,233581
28.57545,231173
28.58170,225769
28.58795,219132
28.59422,223263
28.60047,230575
28.60672,218532
28.61298,220380
28.61923,215452
28.62548,218935
28.63175,223321
28.63800,217090
28.64425,225760
28.65050,221231
28.65677,218336
28.66302,215608
28.66927,224604
28.67553,216514
28.68178,218447
28.68803,208237
28.69430,216511
28.70055,214299
28.70680,215108
28.71307,209514
28.71932,217644
28.72557,211295
28.73183,216772
28.73808,219298
28.74433,219386
28.75060,216827
28.75685,213894
28.76310,223393
28.76937,212401
28.77562,209961
28.78187,206879
28.78813,213291
28.79438,209861
28.80063,206408
28.80690,213603
28.81315,205188
28.81940,208073
28.82567,206888
28.83192,204712
28.83817,204496
28.84443,204550
28.85068,203150
28.85693,204792
28.86318,206229
28.86945,209686
28.87570,202829
28.88195,205353
28.88822,203605
28.89447,199690
28.90072,199789
28.90698,204338
28.91323,206662
28.91948,204846
28.92575,203247
28.93200,198364
28.93825,199796
28.94452,200271
28.95077,203209
28.95702,200305
28.96328,201714
28.96953,204362
28.97578,202965
28.98205,196219
28.98830,202166
28.99455,201059
29.00082,200306
29.00707,199128
29.01332,198370
29.01958,200797
29.02583,202869
29.03208,206078
29.03835,201506
29.04460,208375
29.05085,203795
29.05712,207437
29.06337,198365
29.06962,199151
29.07587,202590
29.08213,195870
29.08838,201944
29.09463,201094
29.10090,200694
29.10715,204276
29.11340,206155
29.11967,194488
29.12592,197083
29.13217,195919
29.13843,203732
29.14468,199609
29.15093,197144
29.15720,196551
29.16345,198229
29.16970,196280
29.17597,197518
29.18222,194421
29.18847,196451
29.19473,198523
29.20098,202717
29.20723,204465
29.21350,201996
29.21975,199615
29.22600,196967
29.23227,203086
29.23852,215609
29.24477,220355
29.25103,220527
29.25728,223662
29.26353,221580
29.26980,216520
29.27605,217401
29.28230,212924
29.28857,207134
29.29482,200919
29.30107,200293
29.30732,198050
29.31358,199970
29.31983,198597
29.32608,197932
29.33235,195978
29.33860,198374
29.34485,202042
29.35112,198059
29.35737,195547
29.36362,201732
29.36988,203104
29.37613,193052
29.38238,199952
29.38865,193358
29.39490,195191
29.40115,197933
29.40742,196473
29.41367,195664
29.41992,199593
29.42618,194034
29.43243,194380
29.43868,196349
29.44495,192167
29.45120,196315
29.45745,194442
29.46372,195355
29.46997,198590
29.47622,194245
29.48248,197704
29.48873,190459
29.49498,195996
29.50125,199346
29.50750,192518
29.51375,189622
29.52000,194252
29.52627,196952
29.53252,189117
29.53877,199719
29.54503,199027
29.55128,193070
29.55753,192833
29.56380,190432
29.57005,189916
29.57630,195085
29.58257,193140
29.58882,194120
29.59507,191372
29.60133,198137
29.60758,192730
29.61383,199614
29.62010,187644
29.62635,186727
29.63260,194685
29.63887,193435
29.64512,197075
29.65137,192079
29.65763,190573
29.66388,193544
29.67013,190203
29.67640,187188
29.68265,191789
29.68890,188540
29.69517,188650
29.70142,190703
29.70767,196864
29.71393,194447
29.72018,195161
29.72643,193491
29.73270,193314
29.73895,187324
29.74520,192620
29.75145,192016
29.75772,193537
29.76397,187859
29.77022,192562
29.77648,192867
29.78273,183729
29.78898,188463
29.79525,190241
29.80150,188414
29.80775,189862
29.81402,193684
29.82027,187671
29.82652,189308
29.83278,187290
29.83903,192777
29.84528,191008
29.85155,183563
29.85780,185952
29.86405,188114
29.87032,186473
29.87657,184858
29.88282,187691
29.88908,185338
29.89533,190478
29.90158,183403
29.90785,188442
29.91410,194549
29.92035,190800
29.92662,184827
29.93287,186289
29.93912,183850
29.94538,185181
29.95163,188179
29.95788,186386
29.96413,182225
29.97040,187159
29.97665,182710
29.98290,187650
29.98917,184801
29.99542,188475
30.00167,184527
30.00793,190011
30.01418,186260
30.02043,191267
30.02670,192850
30.03295,184898
30.03920,185031
30.04547,181631
30.05172,186529
30.05797,192387
30.06423,183134
30.07048,187821
30.07673,182872
30.08300,183541
30.08925,187401
30.09550,184988
30.10177,186159
30.10802,179934
30.11427,181622
30.12053,188461
30.12678,181439
30.13303,180600
30.13930,181971
30.14555,176799
30.15180,180149
30.15807,183406
30.16432,179239
30.17057,182688
30.17683,178049
30.18308,180473
30.18933,179518
30.19558,179969
30.20185,180479
30.20810,177960
30.21435,185683
30.22062,178813
30.22687,181157
30.23312,180663
30.23938,181633
30.24563,185657
30.25188,180783
30.25815,187010
30.26440,187556
30.27065,184521
30.27692,185668
30.28317,182378
30.28942,182005
30.29568,183094
30.30193,178403
30.30818,180395
30.31445,177642
30.32070,179093
30.32695,178368
30.33322,179157
30.33947,184233
30.34572,181279
30.35198,180722
30.35823,181617
30.36448,183659
30.37075,180696
30.37700,178603
30.38325,178423
30.38952,178448
30.39577,178491
30.40202,185530
30.40827,179899
30.41453,178831
30.42078,181104
30.42703,178776
30.43330,179861
30.43955,174912
30.44580,181197
30.45207,182328
30.45832,182855
30.46457,185801
30.47083,180696
30.47708,176027
30.48333,173698
30.48960,181861
30.49585,179236
30.50210,182824
30.50837,181399
30.51462,182196
30.52087,180831
30.52713,180022
30.53338,178643
30.53963,181387
30.54590,174656
30.55215,177088
30.55840,176797
30.56467,176075
30.57092,179033
30.57717,176095
30.58343,181074
30.58968,178599
30.59593,180498
30.60220,184576
30.60845,174095
30.61470,181430
30.62097,172853
30.62722,173549
30.63347,174809
30.63972,179771
30.64598,176798
30.65223,172889
30.65848,174641
30.66475,175406
30.67100,177336
30.67725,181766
30.68352,185098
30.68977,186494
30.69602,191557
30.70228,190922
30.70853,196456
30.71478,195648
30.72105,204386
30.72730,194210
30.73355,191009
30.73982,191259
30.74607,183412
30.75232,187710
30.75858,186390
30.76483,183962
30.77108,175294
30.77735,180816
30.78360,185571
30.78985,178433
30.79612,178624
30.80237,173760
30.80862,180155
30.81488,178229
30.82113,175803
30.82738,172050
30.83365,174787
30.83990,181318
30.84615,181762
30.85240,180042
30.85867,179627
30.86492,177367
30.87117,172029
30.87743,181693
30.88368,176345
30.88993,179749
30.89620,172342
30.90245,179939
30.90870,176107
30.91497,177430
30.92122,172970
30.92747,174866
30.93373,179431
30.93998,176726
30.94623,179282
30.95250,174567
30.95875,181602
30.96500,179600
30.97127,181080
30.97752,177878
30.98377,179290
30.99003,176256
30.99628,173428
31.00253,180620
31.00880,176714
31.01505,180165
31.02130,185869
31.02757,181088
31.03382,178284
31.04007,180148
31.04633,186171
31.05258,182334
31.05883,175165
31.06508,173436
31.07135,172772
31.07760,172071
31.08385,172371
31.09012,176931
31.09637,173418
31.10262,173213
31.10888,173591
31.11513,171034
31.12138,172922
31.12765,173695
31.13390,170167
31.14015,172495
31.14642,171330
31.15267,174860
31.15892,168193
31.16518,171503
31.17143,168327
31.17768,170066
31.18395,172312
31.19020,170357
31.19645,168933
31.20272,169789
31.20897,169490
31.21522,177124
31.22148,168658
31.22773,169217
31.23398,169035
31.24025,169837
31.24650,168719
31.25275,171191
31.25902,169321
31.26527,169523
31.27152,168892
31.27778,172095
31.28403,169508
31.29028,170040
31.29653,174389
31.30280,174981
31.30905,169318
31.31530,175954
31.32157,173311
31.32782,172036
31.33407,173717
31.34033,169465
31.34658,173750
31.35283,176109
31.35910,170358
31.36535,173380
31.37160,172575
31.37787,171762
31.38412,176179
31.39037,172147
31.39663,170236
31.40288,170328
31.40913,180542
31.41540,177297
31.42165,176235
31.42790,178942
31.43417,179595
31.44042,174393
31.44667,176918
31.45293,176566
31.45918,177910
31.46543,180501
31.47170,176739
31.47795,171873
31.48420,171963
31.49047,173417
31.49672,179002
31.50297,171483
31.50922,174278
31.51548,171283
31.52173,177149
31.52798,176721
31.53425,172020
31.54050,176743
31.54675,170274
31.55302,168998
31.55927,170518
31.56552,171591
31.57178,177098
31.57803,170355
31.58428,168348
31.59055,168536
31.59680,167395
31.60305,170390
31.60932,165078
31.61557,163677
31.62182,168228
31.62808,167717
31.63433,169716
31.64058,168926
31.64685,167961
31.65310,168838
31.65935,168540
31.66562,171014
31.67187,167811
31.67812,167064
31.68438,166606
31.69063,165974
31.69688,164953
31.70315,165807
31.70940,164282
31.71565,164407
31.72190,166253
31.72817,164855
31.73442,166331
31.74067,165939
31.74693,165402
31.75318,165088
31.75943,170019
31.76570,163193
31.77195,164391
31.77820,165363
31.78447,163860
31.79072,165790
31.79697,163694
31.80323,167043
31.80948,166948
31.81573,163714
31.82200,163716
31.82825,166045
31.83450,165453
31.84077,161014
31.84702,163707
31.85327,166397
31.85953,164593
31.86578,166726
31.87203,163868
31.87830,162014
31.88455,164766
31.89080,162800
31.89707,166320
31.90332,165729
31.90957,162026
31.91583,166812
31.92208,171687
31.92833,163263
31.93460,170525
31.94085,160107
31.94710,163003
31.95335,163233
31.95962,162174
31.96587,161532
31.97212,165720
31.97838,159898
31.98463,168698
31.99088,163678
31.99715,165843
32.00340,168252
32.00965,165295
32.01592,166611
32.02217,162690
32.02842,159579
32.03468,165933
32.04093,162401
32.04718,162894
32.05345,159908
32.05970,159176
32.06595,160748
32.07222,162048
32.07847,162381
32.08472,162488
32.09098,160992
32.09723,155944
32.10348,164547
32.10975,164684
32.11600,166447
32.12225,164219
32.12852,161562
32.13477,158307
32.14102,158710
32.14728,161692
32.15353,160463
32.15978,160855
32.16603,164760
32.17230,164370
32.17855,158716
32.18480,161356
32.19107,163402
32.19732,160765
32.20357,159280
32.20983,163463
32.21608,160458
32.22233,161041
32.22860,162928
32.23485,159970
32.24110,158985
32.24737,165447
32.25362,161303
32.25987,161463
32.26613,162566
32.27238,160710
32.27863,166149
32.28490,164107
32.29115,167745
32.29740,164691
32.30367,165057
32.30992,160881
32.31617,165754
32.32243,159656
32.32868,158587
32.33493,161276
32.34120,158092
32.34745,162018
32.35370,158211
32.35997,164018
32.36622,165840
32.37247,159141
32.37873,159300
32.38498,159952
32.39123,159354
32.39748,164105
32.40375,158354
32.41000,153493
32.41625,159409
32.42252,154112
32.42877,159679
32.43502,160805
32.44128,155560
32.44753,162740
32.45378,156627
32.46005,156791
32.46630,158201
32.47255,160759
32.47882,155541
32.48507,158483
32.49132,159771
32.49758,159003
32.50383,161666
32.51008,161126
32.51635,155172
32.52260,156888
32.52885,156175
32.53512,158501
32.54137,157250
32.54762,158824
32.55388,159280
32.56013,154167
32.56638,162128
32.57265,154856
32.57890,161755
32.58515,157779
32.59142,157521
32.59767,160051
32.60392,155077
32.61017,159206
32.61643,159581
32.62268,156383
32.62893,155770
32.63520,161164
32.64145,159568
32.64770,156070
32.65397,161489
32.66022,156727
32.66647,159076
32.67273,153863
32.67898,155544
32.68523,161537
32.69150,153403
32.69775,156561
32.70400,155182
32.71027,159097
32.71652,160624
32.72277,157543
32.72903,157635
32.73528,153151
32.74153,154942
32.74780,158877
32.75405,156857
32.76030,152536
32.76657,154337
32.77282,159503
32.77907,153140
32.78533,154232
32.79158,151866
32.79783,158274
32.80410,155531
32.81035,155876
32.81660,156079
32.82287,154725
32.82912,153202
32.83537,159235
32.84162,153754
32.84788,150094
32.85413,153797
32.86038,152883
32.86665,151168
32.87290,151888
32.87915,155993
32.88542,154905
32.89167,157838
32.89792,156200
32.90418,154976
32.91043,150943
32.91668,157244
32.92295,154107
32.92920,149793
32.93545,151920
32.94172,152095
32.94797,151601
32.95422,154183
32.96048,155448
32.96673,158583
32.97298,151857
32.97925,152132
32.98550,157009
32.99175,151014
32.99802,153862
33.00427,152090
33.01052,155417
33.01678,149527
33.02303,150099
33.02928,155836
33.03555,150719
33.04180,157429
33.04805,152797
33.05430,151697
33.06057,151582
33.06682,153765
33.07307,151425
33.07933,151648
33.08558,156791
33.09183,158687
33.09810,154390
33.10435,155761
33.11060,149883
33.11687,154726
33.12312,152045
33.12937,153277
33.13563,152571
33.14188,152836
33.14813,153218
33.15440,157652
33.16065,157174
33.16690,153804
33.17317,159694
33.17942,163100
33.18567,163911
33.19193,167657
33.19818,162139
33.20443,164582
33.21070,165131
33.21695,160586
33.22320,157938
33.22947,157144
33.23572,155925
33.24197,154374
33.24823,153366
33.25448,154066
33.26073,151404
33.26700,158102
33.27325,153787
33.27950,148746
33.28575,153930
33.29202,154054
33.29827,150476
33.30452,148255
33.31078,149836
33.31703,153903
33.32328,154529
33.32955,149120
33.33580,150169
33.34205,149249
33.34832,152832
33.35457,151852
33.36082,155505
33.36708,153121
33.37333,153659
33.37958,151796
33.38585,154401
33.39210,150108
33.39835,153721
33.40462,153436
33.41087,155300
33.41712,155575
33.42338,147597
33.42963,150366
33.43588,149688
33.44215,153423
33.44840,147528
33.45465,147747
33.46092,155315
33.46717,148078
33.47342,151453
33.47968,150336
33.48593,149734
33.49218,149224
33.49843,147470
33.50470,144522
33.51095,147937
33.51720,146909
33.52347,149282
33.52972,153718
33.53597,149068
33.54223,151699
33.54848,146226
33.55473,151728
33.56100,149075
33.56725,150004
33.57350,147614
33.57977,149194
33.58602,150272
33.59227,146372
33.59853,152665
33.60478,147592
33.61103,150066
33.61730,145469
33.62355,147977
33.62980,145731
33.63607,147744
33.64232,145842
33.64857,146974
33.65483,143230
33.66108,147301
33.66733,154029
33.67360,150388
33.67985,147852
33.68610,148689
33.69237,150109
33.69862,144115
33.70487,146330
33.71112,152269
33.71738,147226
33.72363,142227
33.72988,145386
33.73615,148327
33.74240,148755
33.74865,144921
33.75492,149145
33.76117,147319
33.76742,147240
33.77368,149233
33.77993,146166
33.78618,151691
33.79245,147798
33.79870,144181
33.80495,149891
33.81122,146247
33.81747,147809
33.82372,147880
33.82998,144827
33.83623,146905
33.84248,146408
33.84875,146054
33.85500,145316
33.86125,145562
33.86752,146022
33.87377,148355
33.88002,140848
33.88628,146724
33.89253,150412
33.89878,148785
33.90505,146182
33.91130,144081
33.91755,150885
33.92382,145036
33.93007,143231
33.93632,143100
33.94257,145697
33.94883,145072
33.95508,142416
33.96133,146086
33.96760,142848
33.97385,144368
33.98010,141662
33.98637,148952
33.99262,140110
33.99887,145552
34.00513,144199
34.01138,144039
34.01763,146359
34.02390,142991
34.03015,139823
34.03640,145984
34.04267,145369
34.04892,148378
34.05517,144482
34.06143,143749
34.06768,144284
34.07393,142580
34.08020,139867
34.08645,144934
34.09270,143694
34.09897,146041
34.10522,142202
34.11147,143543
34.11773,141254
34.12398,143223
34.13023,140503
34.13650,146088
34.14275,143418
34.14900,144879
34.15525,146857
34.16152,143980
34.16777,143059
34.17402,144142
34.18028,145353
34.18653,146621
34.19278,142530
34.19905,142742
34.20530,140577
34.21155,141422
34.21782,142765
34.22407,143871
34.23032,143205
34.23658,146740
34.24283,140853
34.24908,138807
34.25535,144233
34.26160,144416
34.26785,139880
34.27412,139502
34.28037,140469
34.28662,139805
34.29288,142170
34.29913,146489
34.30538,144620
34.31165,146091
34.31790,145028
34.32415,148498
34.33042,144193
34.33667,147632
34.34292,147513
34.34918,143659
34.35543,138584
34.36168,142241
34.36793,141560
34.37420,140175
34.38045,140344
34.38670,142902
34.39297,139780
34.39922,141034
34.40547,143127
34.41173,143830
34.41798,140006
34.42423,141968
34.43050,140412
34.43675,138659
34.44300,139525
34.44927,143126
34.45552,138701
34.46177,143862
34.46803,140995
34.47428,143969
34.48053,138315
34.48680,138264
34.49305,145029
34.49930,137894
34.50557,142734
34.51182,140563
34.51807,141304
34.52433,144484
34.53058,139889
34.53683,137668
34.54310,137874
34.54935,138613
34.55560,142658
34.56187,139605
34.56812,138912
34.57437,136647
34.58063,137316
34.58688,138075
34.59313,134923
34.59938,138022
34.60565,138232
34.61190,135790
34.61815,140907
34.62442,137351
34.63067,142975
34.63692,140535
34.64318,138816
34.64943,138361
34.65568,137608
34.66195,134980
34.66820,136063
34.67445,142013
34.68072,136933
34.68697,143515
34.69322,140066
34.69948,135741
34.70573,140404
34.71198,137318
34.71825,139864
34.72450,139870
34.73075,141477
34.73702,136951
34.74327,141968
34.74952,138346
34.75578,140844
34.76203,140147
34.76828,136937
34.77455,137550
34.78080,138921
34.78705,135691
34.79332,140950
34.79957,142064
34.80582,136957
34.81207,134008
34.81833,136240
34.82458,136490
34.83083,138443
34.83710,141017
34.84335,139134
34.84960,138728
34.85587,136336
34.86212,142702
34.86837,132122
34.87463,135900
34.88088,140161
34.88713,137207
34.89340,136888
34.89965,139378
34.90590,140931
34.91217,139403
34.91842,135082
34.92467,138871
34.93093,141760
34.93718,138796
34.94343,134245
34.94970,140200
34.95595,134732
34.96220,137551
34.96847,139258
34.97472,136971
34.98097,140970
34.98723,136723
34.99348,136419
34.99973,136887
35.00600,135475
35.01225,137313
35.01850,134873
35.02477,135916
35.03102,138912
35.03727,136339
35.04352,137119
35.04978,137182
35.05603,137611
35.06228,135986
35.06855,135436
35.07480,135931
35.08105,135377
35.08732,138450
35.09357,137839
35.09982,136479
35.10608,135898
35.11233,134993
35.11858,132874
35.12485,139123
35.13110,133713
35.13735,138781
35.14362,136078
35.14987,141661
35.15612,139317
35.16238,141255
35.16863,134316
35.17488,136322
35.18115,137567
35.18740,138490
35.19365,136077
35.19992,133088
35.20617,133811
35.21242,131329
35.21868,135071
35.22493,138738
35.23118,134208
35.23745,132813
35.24370,133516
35.24995,136530
35.25620,138287
35.26247,134108
35.26872,137876
35.27497,133642
35.28123,132277
35.28748,133508
35.29373,134926
35.30000,137036
35.30625,131615
35.31250,138098
35.31877,137563
35.32502,137493
35.33127,131411
35.33753,134883
35.34378,133672
35.35003,131062
35.35630,134907
35.36255,134077
35.36880,132438
35.37507,130693
35.38132,136026
35.38757,137096
35.39383,130948
35.40008,137519
35.40633,132997
35.41260,133932
35.41885,133121
35.42510,134835
35.43137,137925
35.43762,135139
35.44387,132500
35.45013,132574
35.45638,134484
35.46263,134034
35.46890,134614
35.47515,134152
35.48140,134671
35.48765,134382
35.49392,134487
35.50017,132775
35.50642,134550
35.51268,132966
35.51893,132560
35.52518,134597
35.53145,130463
35.53770,131045
35.54395,133445
35.55022,134908
35.55647,132582
35.56272,131452
35.56898,131693
35.57523,134532
35.58148,132478
35.58775,137277
35.59400,134729
35.60025,132808
35.60652,139886
35.61277,135097
35.61902,133394
35.62528,133306
35.63153,133505
35.63778,132722
35.64405,135504
35.65030,130784
35.65655,133502
35.66282,132843
35.66907,132777
35.67532,137246
35.68158,137678
35.68783,130311
35.69408,131049
35.70033,133120
35.70660,130527
35.71285,132975
35.71910,135866
35.72537,131448
35.73162,129499
35.73787,135919
35.74413,133961
35.75038,131124
35.75663,135525
35.76290,130787
35.76915,131527
35.77540,132105
35.78167,132223
35.78792,131161
35.79417,135174
35.80043,131701
35.80668,133849
35.81293,131976
35.81920,134383
35.82545,130294
35.83170,132326
35.83797,130586
35.84422,131484
35.85047,136096
35.85673,129720
35.86298,131703
35.86923,131089
35.87550,131243
35.88175,128705
35.88800,133561
35.89427,128984
35.90052,128927
35.90677,132420
35.91303,129452
35.91928,132999
35.92553,130121
35.93178,133674
35.93805,131039
35.94430,132066
35.95055,130779
35.95682,129934
35.96307,131672
35.96932,132965
35.97558,129267
35.98183,134703
35.98808,127923
35.99435,128492
36.00060,126539
36.00685,129908
36.01312,127493
36.01937,133877
36.02562,132228
36.03188,129380
36.03813,128182
36.04438,131978
36.05065,127286
36.05690,133076
36.06315,128709
36.06942,129911
36.07567,128875
36.08192,130173
36.08818,132728
36.09443,130859
36.10068,134022
36.10695,132810
36.11320,131972
36.11945,133365
36.12572,127160
36.13197,128559
36.13822,129611
36.14447,130492
36.15073,129071
36.15698,129337
36.16323,127684
36.16950,131531
36.17575,128224
36.18200,127268
36.18827,129935
36.19452,128371
36.20077,128284
36.20703,129759
36.21328,129550
36.21953,129866
36.22580,134971
36.23205,127364
36.23830,127955
36.24457,128744
36.25082,129303
36.25707,137752
36.26333,136978
36.26958,140424
36.27583,144695
36.28210,149295
36.28835,152997
36.29460,163371
36.30087,167687
36.30712,179309
36.31337,183375
36.31963,192915
36.32588,199159
36.33213,205300
36.33840,219049
36.34465,227777
36.35090,235659
36.35715,234308
36.36342,233221
36.36967,224790
36.37592,221716
36.38218,213381
36.38843,216879
36.39468,203435
36.40095,192031
36.40720,187358
36.41345,179188
36.41972,168518
36.42597,161125
36.43222,154662
36.43848,153603
36.44473,148958
36.45098,148434
36.45725,145196
36.46350,142905
36.46975,147401
36.47602,140315
36.48227,141131
36.48852,140425
36.49478,136229
36.50103,137709
36.50728,140507
36.51355,135256
36.51980,137998
36.52605,134174
36.53232,137515
36.53857,137009
36.54482,136864
36.55108,133853
36.55733,133015
36.56358,138505
36.56985,135333
36.57610,134429
36.58235,138647
36.58860,137578
36.59487,136391
36.60112,132270
36.60737,137470
36.61363,136080
36.61988,132644
36.62613,133740
36.63240,131126
36.63865,138673
36.64490,136767
36.65117,128191
36.65742,129316
36.66367,129074
36.66993,131895
36.67618,132550
36.68243,136413
36.68870,131755
36.69495,134352
36.70120,130448
36.70747,129365
36.71372,128562
36.71997,130721
36.72623,130248
36.73248,131520
36.73873,131968
36.74500,128331
36.75125,130330
36.75750,127912
36.76377,131791
36.77002,128608
36.77627,131311
36.78253,130051
36.78878,127235
36.79503,131532
36.80128,133050
36.80755,129445
36.81380,133441
36.82005,127440
36.82632,126694
36.83257,127352
36.83882,129422
36.84508,130586
36.85133,126676
36.85758,128441
36.86385,131516
36.87010,126637
36.87635,125976
36.88262,126947
36.88887,129767
36.89512,126966
36.90138,126823
36.90763,128213
36.91388,122933
36.92015,126937
36.92640,130984
36.93265,131101
36.93892,132292
36.94517,123668
36.95142,127185
36.95768,123478
36.96393,124413
36.97018,131745
36.97645,121834
36.98270,126833
36.98895,125722
36.99522,128861
37.00147,125744
37.00772,130522
37.01397,125856
37.02023,126765
37.02648,130350
37.03273,127838
37.03900,128486
37.04525,129138
37.05150,125493
37.05777,124926
37.06402,125994
37.07027,129058
37.07653,128971
37.08278,128789
37.08903,126647
37.09530,130707
37.10155,124133
37.10780,124708
37.11407,127158
37.12032,127660
37.12657,123041
37.13283,126196
37.13908,125768
37.14533,128534
37.15160,126780
37.15785,126396
37.16410,126813
37.17037,125804
37.17662,127187
37.18287,125923
37.18913,124561
37.19538,125874
37.20163,124543
37.20790,125197
37.21415,128620
37.22040,126858
37.22667,126406
37.23292,124752
37.23917,124573
37.24542,127145
37.25168,127865
37.25793,123364
37.26418,123617
37.27045,124256
37.27670,126943
37.28295,126045
37.28922,126826
37.29547,123828
37.30172,126632
37.30798,124399
37.31423,124416
37.32048,123863
37.32675,130589
37.33300,125418
37.33925,124053
37.34552,121608
37.35177,126425
37.35802,124723
37.36428,126942
37.37053,121632
37.37678,125006
37.38305,124481
37.38930,124462
37.39555,127298
37.40182,130108
37.40807,124094
37.41432,123945
37.42058,122535
37.42683,119154
37.43308,122740
37.43935,122659
37.44560,125244
37.45185,123420
37.45810,124693
37.46437,126112
37.47062,126241
37.47687,126542
37.48313,123074
37.48938,122227
