D:\MassHunter\GCMS\1\data\metastasis_lineages_3replicates_3runs_10302020\M_plate3_run1_10302020.D Fri Oct 30 22:49:37 2020
Start of data points
5.99355,166730
5.99980,164037
6.00607,165488
6.01232,162388
6.01857,168840
6.02483,173650
6.03108,170244
6.03733,178572
6.04358,180863
6.04985,173618
6.05610,163287
6.06235,161827
6.06862,172333
6.07487,176856
6.08112,182494
6.08738,176549
6.09363,171126
6.09988,184625
6.10615,306157
6.11240,646515
6.11865,989805
6.12492,937028
6.13117,613556
6.13742,363532
6.14368,242914
6.14993,205955
6.15618,230901
6.16245,356609
6.16870,642719
6.17495,949949
6.18122,970078
6.18747,701434
6.19372,426629
6.19998,286381
6.20623,232026
6.21248,193854
6.21875,163505
6.22500,157254
6.23125,157850
6.23752,164594
6.24377,159711
6.25002,142434
6.25628,139032
6.26253,129910
6.26878,122409
6.27503,124610
6.28130,136747
6.28755,137356
6.29380,131696
6.30007,131085
6.30632,116645
6.31257,120641
6.31883,119888
6.32508,126497
6.33133,140925
6.33760,157973
6.34385,204761
6.35010,273896
6.35637,291616
6.36262,238599
6.36887,172410
6.37513,148009
6.38138,170108
6.38763,167104
6.39390,161859
6.40015,163521
6.40640,193847
6.41267,263781
6.41892,405527
6.42517,604265
6.43143,814400
6.43768,957797
6.44393,927983
6.45020,687151
6.45645,418803
6.46270,339279
6.46897,578104
6.47522,1304995
6.48147,2554106
6.48772,4359164
6.49398,7863785
6.50023,1.43024E+07
6.50648,2.157304E+07
6.51275,2.312159E+07
6.51900,1.49995E+07
6.52525,4625721
6.53152,889851
6.53777,333193
6.54402,315552
6.55028,367590
6.55653,455676
6.56278,560595
6.56905,892988
6.57530,1689354
6.58155,2428106
6.58782,2161443
6.59407,1185197
6.60032,548868
6.60658,334094
6.61283,278539
6.61908,254498
6.62535,248599
6.63160,246862
6.63785,258207
6.64412,262346
6.65037,255300
6.65662,235410
6.66288,220697
6.66913,232295
6.67538,287915
6.68165,362570
6.68790,408617
6.69415,359794
6.70042,281259
6.70667,256511
6.71292,245578
6.71917,261240
6.72543,283390
6.73168,288539
6.73793,281787
6.74420,293239
6.75045,314833
6.75670,315941
6.76297,317315
6.76922,319221
6.77547,315006
6.78173,327721
6.78798,321522
6.79423,333741
6.80050,350608
6.80675,365764
6.81300,383326
6.81927,392774
6.82552,401143
6.83177,404751
6.83803,407773
6.84428,420018
6.85053,449050
6.85680,501039
6.86305,525500
6.86930,512427
6.87557,460610
6.88182,452916
6.88807,467794
6.89433,528436
6.90058,581826
6.90683,561134
6.91310,505814
6.91935,436465
6.92560,411403
6.93185,395810
6.93812,393050
6.94437,387403
6.95062,376953
6.95688,362280
6.96313,358278
6.96938,339904
6.97565,328402
6.98190,339036
6.98815,348220
6.99442,339392
7.00067,316505
7.00692,286912
7.01318,288152
7.01943,276614
7.02568,284208
7.03195,319083
7.03820,407573
7.04445,565981
7.05072,964304
7.05697,1570730
7.06322,1992791
7.06948,1651086
7.07573,944034
7.08198,438601
7.08825,238532
7.09450,176893
7.10075,157485
7.10702,143867
7.11327,134208
7.11952,134378
7.12578,128869
7.13203,117668
7.13828,133328
7.14455,146313
7.15080,154776
7.15705,149029
7.16330,132608
7.16957,120513
7.17582,124109
7.18207,127180
7.18833,115077
7.19458,119353
7.20083,116266
7.20710,109301
7.21335,104275
7.21960,105805
7.22587,104349
7.23212,105840
7.23837,117922
7.24463,129121
7.25088,146421
7.25713,182322
7.26340,272521
7.26965,458027
7.27590,645830
7.28217,662135
7.28842,489330
7.29467,291356
7.30093,185150
7.30718,150469
7.31343,142648
7.31970,131382
7.32595,117994
7.33220,111641
7.33847,103015
7.34472,105127
7.35097,106271
7.35723,98993
7.36348,103348
7.36973,99743
7.37598,95637
7.38225,97778
7.38850,108458
7.39475,114996
7.40102,120636
7.40727,122137
7.41352,108975
7.41978,122121
7.42603,184994
7.43228,271985
7.43855,331029
7.44480,311124
7.45105,223065
7.45732,150848
7.46357,119419
7.46982,117601
7.47608,125127
7.48233,129648
7.48858,132054
7.49485,135974
7.50110,149817
7.50735,137747
7.51362,113800
7.51987,100796
7.52612,93049
7.53238,84971
7.53863,84785
7.54488,86822
7.55115,106780
7.55740,242013
7.56365,963520
7.56992,3448329
7.57617,8691694
7.58242,1.566556E+07
7.58868,2.196502E+07
7.59493,2.336096E+07
7.60118,1.625566E+07
7.60743,5948547
7.61370,1452385
7.61995,648173
7.62620,562223
7.63247,522552
7.63872,395250
7.64497,272664
7.65123,192567
7.65748,161889
7.66373,147278
7.67000,145155
7.67625,173159
7.68250,225742
7.68877,273930
7.69502,267128
7.70127,206997
7.70753,153197
7.71378,144001
7.72003,185060
7.72630,268077
7.73255,321451
7.73880,298316
7.74507,247242
7.75132,204332
7.75757,159057
7.76383,133308
7.77008,115057
7.77633,104238
7.78260,110595
7.78885,108451
7.79510,113244
7.80137,106015
7.80762,105598
7.81387,110956
7.82012,110609
7.82638,131372
7.83263,180972
7.83888,219688
7.84515,219212
7.85140,182904
7.85765,140948
7.86392,119143
7.87017,117038
7.87642,122354
7.88268,128332
7.88893,154808
7.89518,174586
7.90145,169698
7.90770,146044
7.91395,139734
7.92022,143337
7.92647,138217
7.93272,124019
7.93898,107399
7.94523,103816
7.95148,108786
7.95775,138778
7.96400,169902
7.97025,182949
7.97652,173142
7.98277,170003
7.98902,203024
7.99528,300235
8.00153,546434
8.00778,903547
8.01405,1316971
8.02030,1812508
8.02655,2032327
8.03280,1685719
8.03907,1071508
8.04532,699450
8.05157,691429
8.05783,781875
8.06408,722479
8.07033,493076
8.07660,291683
8.08285,169468
8.08910,133426
8.09537,130869
8.10162,144747
8.10787,161346
8.11413,167805
8.12038,175581
8.12663,171664
8.13290,150417
8.13915,135310
8.14540,134916
8.15167,136353
8.15792,120527
8.16417,110210
8.17043,115613
8.17668,106001
8.18293,99792
8.18920,98221
8.19545,90662
8.20170,91346
8.20797,91740
8.21422,88921
8.22047,86266
8.22673,96256
8.23298,102957
8.23923,110402
8.24550,118256
8.25175,125660
8.25800,120812
8.26425,117997
8.27052,121196
8.27677,129403
8.28302,145156
8.28928,145450
8.29553,141289
8.30178,134717
8.30805,118487
8.31430,98069
8.32055,84850
8.32682,78654
8.33307,79618
8.33932,83787
8.34558,89401
8.35183,87064
8.35808,91601
8.36435,88421
8.37060,92645
8.37685,91848
8.38312,87772
8.38937,89155
8.39562,82985
8.40188,84945
8.40813,86732
8.41438,88485
8.42065,95638
8.42690,95469
8.43315,98287
8.43942,93793
8.44567,93556
8.45192,92056
8.45818,91296
8.46443,88578
8.47068,85377
8.47693,95432
8.48320,93810
8.48945,94867
8.49570,97220
8.50197,98594
8.50822,101630
8.51447,114074
8.52073,105359
8.52698,98429
8.53323,84987
8.53950,80714
8.54575,79290
8.55200,81901
8.55827,97025
8.56452,156162
8.57077,265414
8.57703,388070
8.58328,427065
8.58953,398097
8.59580,429185
8.60205,579155
8.60830,834623
8.61457,1668682
8.62082,4065979
8.62707,8063343
8.63333,1.132465E+07
8.63958,1.074922E+07
8.64583,6459541
8.65210,2261244
8.65835,568221
8.66460,210178
8.67087,154015
8.67712,140545
8.68337,132843
8.68962,125256
8.69588,110746
8.70213,117486
8.70838,135006
8.71465,158762
8.72090,172691
8.72715,154890
8.73342,135769
8.73967,119704
8.74592,133516
8.75218,148908
8.75843,149691
8.76468,121880
8.77095,96423
8.77720,82665
8.78345,81615
8.78972,87750
8.79597,85943
8.80222,86922
8.80848,80426
8.81473,76698
8.82098,86455
8.82725,136936
8.83350,372980
8.83975,1079182
8.84602,2668538
8.85227,5123502
8.85852,7810720
8.86478,9448693
8.87103,9214866
8.87728,6912122
8.88355,3016707
8.88980,747246
8.89605,257072
8.90232,179737
8.90857,152108
8.91482,130379
8.92107,114613
8.92733,108249
8.93358,103366
8.93983,103206
8.94610,102935
8.95235,109280
8.95860,128124
8.96487,161475
8.97112,202205
8.97737,228043
8.98363,245631
8.98988,270468
8.99613,317806
9.00240,453491
9.00865,618416
9.01490,730176
9.02117,681226
9.02742,474474
9.03367,289642
9.03993,190798
9.04618,152775
9.05243,133470
9.05870,120858
9.06495,134214
9.07120,132708
9.07747,130211
9.08372,118537
9.08997,115976
9.09623,122864
9.10248,133748
9.10873,133823
9.11500,125471
9.12125,113411
9.12750,96201
9.13375,88604
9.14002,89161
9.14627,99797
9.15252,120559
9.15878,159939
9.16503,206936
9.17128,236745
9.17755,243010
9.18380,271206
9.19005,372686
9.19632,509892
9.20257,546396
9.20882,417198
9.21508,278927
9.22133,193434
9.22758,141009
9.23385,126538
9.24010,160532
9.24635,230441
9.25262,274766
9.25887,257494
9.26512,195069
9.27138,127605
9.27763,94331
9.28388,87333
9.29015,87923
9.29640,104097
9.30265,139580
9.30892,191016
9.31517,247334
9.32142,297467
9.32768,339651
9.33393,348396
9.34018,414250
9.34645,647099
9.35270,935571
9.35895,1043970
9.36520,813888
9.37147,475301
9.37772,424762
9.38397,1225793
9.39023,3822825
9.39648,7958070
9.40273,1.16533E+07
9.40900,1.120464E+07
9.41525,6645738
9.42150,2459729
9.42777,828376
9.43402,1118252
9.44027,3591936
9.44653,9913854
9.45278,1.990152E+07
9.45903,3.041025E+07
9.46530,3.930488E+07
9.47155,4.377546E+07
9.47780,4.421018E+07
9.48407,3.209761E+07
9.49032,8090150
9.49657,944783
9.50283,223365
9.50908,139003
9.51533,125816
9.52160,129936
9.52785,129872
9.53410,123726
9.54037,119152
9.54662,127382
9.55287,124984
9.55913,125215
9.56538,123160
9.57163,138612
9.57788,150655
9.58415,153979
9.59040,141822
9.59665,133753
9.60292,144926
9.60917,168875
9.61542,202686
9.62168,193077
9.62793,163648
9.63418,128057
9.64045,107535
9.64670,99471
9.65295,100846
9.65922,100119
9.66547,98232
9.67172,100906
9.67798,155415
9.68423,540669
9.69048,2083311
9.69675,5650083
9.70300,1.036588E+07
9.70925,1.212469E+07
9.71552,9260669
9.72177,4312933
9.72802,1301918
9.73428,440103
9.74053,344356
9.74678,356868
9.75305,310242
9.75930,224009
9.76555,160416
9.77182,131038
9.77807,120886
9.78432,120616
9.79058,112246
9.79683,102178
9.80308,97951
9.80933,95727
9.81560,93716
9.82185,93690
9.82810,103360
9.83437,117556
9.84062,136642
9.84687,155337
9.85313,202725
9.85938,436855
9.86563,1343452
9.87190,3383684
9.87815,5788759
9.88440,6297934
9.89067,4319842
9.89692,2060046
9.90317,950931
9.90943,987272
9.91568,1168011
9.92193,950695
9.92820,546967
9.93445,250627
9.94070,154195
9.94697,132470
9.95322,149762
9.95947,222095
9.96573,376624
9.97198,630144
9.97823,858873
9.98450,932818
9.99075,795163
9.99700,601624
10.00327,414518
10.00952,285387
10.01577,211167
10.02202,181424
10.02828,160923
10.03453,133600
10.04078,123140
10.04705,122306
10.05330,120753
10.05955,114092
10.06582,106465
10.07207,94139
10.07832,97980
10.08458,102563
10.09083,124690
10.09708,150065
10.10335,169236
10.10960,158600
10.11585,136009
10.12212,116557
10.12837,107124
10.13462,94609
10.14088,90597
10.14713,88954
10.15338,91793
10.15965,92818
10.16590,93102
10.17215,96669
10.17842,103276
10.18467,115379
10.19092,120570
10.19718,110458
10.20343,103077
10.20968,95285
10.21595,102280
10.22220,142898
10.22845,214894
10.23472,328594
10.24097,432701
10.24722,464840
10.25347,401744
10.25973,298655
10.26598,222355
10.27223,189077
10.27850,153888
10.28475,130468
10.29100,135525
10.29727,154876
10.30352,154337
10.30977,137977
10.31603,124120
10.32228,112367
10.32853,106811
10.33480,105739
10.34105,105179
10.34730,102397
10.35357,101916
10.35982,97334
10.36607,107689
10.37233,109443
10.37858,108626
10.38483,94787
10.39110,87116
10.39735,83213
10.40360,76516
10.40987,70886
10.41612,69884
10.42237,76445
10.42863,87499
10.43488,97806
10.44113,101474
10.44740,108575
10.45365,109556
10.45990,115862
10.46615,119577
10.47242,123036
10.47867,154364
10.48492,235469
10.49118,305295
10.49743,304262
10.50368,231308
10.50995,152362
10.51620,107921
10.52245,98309
10.52872,114985
10.53497,159006
10.54122,202538
10.54748,203105
10.55373,183763
10.55998,149377
10.56625,129638
10.57250,129565
10.57875,137076
10.58502,147012
10.59127,143498
10.59752,150124
10.60378,276626
10.61003,872123
10.61628,2391034
10.62255,4940820
10.62880,7064959
10.63505,6735465
10.64132,4072261
10.64757,1622713
10.65382,504075
10.66008,187632
10.66633,126491
10.67258,120303
10.67883,134552
10.68510,138123
10.69135,129547
10.69760,114151
10.70387,99247
10.71012,92722
10.71637,97132
10.72263,103395
10.72888,114644
10.73513,125913
10.74140,130420
10.74765,129998
10.75390,119623
10.76017,108433
10.76642,111131
10.77267,116844
10.77893,118805
10.78518,125837
10.79143,122446
10.79770,118984
10.80395,114103
10.81020,115603
10.81647,136114
10.82272,153610
10.82897,156767
10.83523,130010
10.84148,108940
10.84773,95867
10.85400,107278
10.86025,110145
10.86650,116625
10.87277,125163
10.87902,129071
10.88527,130285
10.89153,130138
10.89778,135748
10.90403,147964
10.91028,156308
10.91655,153046
10.92280,140368
10.92905,140404
10.93532,133678
10.94157,125987
10.94782,106404
10.95408,93951
10.96033,120411
10.96658,293455
10.97285,1012323
10.97910,2967012
10.98535,6682508
10.99162,1.138763E+07
10.99787,1.410239E+07
11.00412,1.149872E+07
11.01038,6104377
11.01663,1939009
11.02288,504853
11.02915,201531
11.03540,189859
11.04165,210814
11.04792,220751
11.05417,233522
11.06042,267042
11.06668,273274
11.07293,250760
11.07918,185570
11.08545,129361
11.09170,107792
11.09795,109221
11.10422,118916
11.11047,121405
11.11672,129751
11.12297,134170
11.12923,138843
11.13548,144248
11.14173,143480
11.14800,148965
11.15425,182603
11.16050,268655
11.16677,413234
11.17302,522264
11.17927,515122
11.18553,353603
11.19178,211583
11.19803,149590
11.20430,141643
11.21055,175998
11.21680,234214
11.22307,273665
11.22932,260837
11.23557,215533
11.24183,168718
11.24808,165119
11.25433,181835
11.26060,198822
11.26685,188250
11.27310,181618
11.27937,191480
11.28562,215495
11.29187,211476
11.29813,178782
11.30438,138967
11.31063,134928
11.31690,175239
11.32315,295016
11.32940,472087
11.33565,578898
11.34192,515838
11.34817,340365
11.35442,174656
11.36068,106022
11.36693,92491
11.37318,87419
11.37945,88034
11.38570,82419
11.39195,86132
11.39822,93859
11.40447,102997
11.41072,102811
11.41698,104615
11.42323,96929
11.42948,86792
11.43575,99076
11.44200,107000
11.44825,126617
11.45452,145095
11.46077,145480
11.46702,129044
11.47328,111494
11.47953,104967
11.48578,105369
11.49205,107359
11.49830,106878
11.50455,105982
11.51082,104875
11.51707,102204
11.52332,97378
11.52958,94631
11.53583,98915
11.54208,106723
11.54835,114819
11.55460,114536
11.56085,105507
11.56710,95364
11.57337,89397
11.57962,87594
11.58587,94366
11.59213,97531
11.59838,100402
11.60463,102262
11.61090,99153
11.61715,97315
11.62340,99624
11.62967,101178
11.63592,102791
11.64217,103125
11.64843,114172
11.65468,129912
11.66093,152881
11.66720,158732
11.67345,147678
11.67970,131787
11.68597,109700
11.69222,100689
11.69847,108488
11.70473,122616
11.71098,149735
11.71723,180599
11.72350,194318
11.72975,188151
11.73600,177999
11.74227,171187
11.74852,154330
11.75477,135208
11.76103,118883
11.76728,120971
11.77353,136974
11.77978,141633
11.78605,148666
11.79230,156026
11.79855,157881
11.80482,155280
11.81107,154396
11.81732,142849
11.82358,144140
11.82983,199341
11.83608,329630
11.84235,485403
11.84860,539180
11.85485,424352
11.86112,275835
11.86737,174282
11.87362,139177
11.87988,138810
11.88613,174015
11.89238,248589
11.89865,329102
11.90490,345659
11.91115,319937
11.91742,261660
11.92367,199099
11.92992,169186
11.93618,193538
11.94243,324893
11.94868,741467
11.95495,1629530
11.96120,3047051
11.96745,4581781
11.97372,5057621
11.97997,3799315
11.98622,1893727
11.99248,705197
11.99873,292526
12.00498,196654
12.01123,179409
12.01750,188232
12.02375,208515
12.03000,236822
12.03627,289967
12.04252,383930
12.04877,551562
12.05503,753555
12.06128,867992
12.06753,799560
12.07380,609000
12.08005,387869
12.08630,294947
12.09257,282384
12.09882,291421
12.10507,288209
12.11133,255902
12.11758,222969
12.12383,190901
12.13010,171266
12.13635,166049
12.14260,157949
12.14887,152803
12.15512,144393
12.16137,139310
12.16763,141555
12.17388,142643
12.18013,142924
12.18640,150522
12.19265,162567
12.19890,205156
12.20517,273649
12.21142,367639
12.21767,445010
12.22392,452082
12.23018,397986
12.23643,358463
12.24268,351925
12.24895,439841
12.25520,680499
12.26145,1015138
12.26772,1223822
12.27397,1196100
12.28022,907973
12.28648,554813
12.29273,366300
12.29898,249240
12.30525,172053
12.31150,130316
12.31775,109153
12.32402,101258
12.33027,106437
12.33652,110855
12.34278,127150
12.34903,147065
12.35528,165592
12.36155,162733
12.36780,153138
12.37405,142260
12.38032,167936
12.38657,228591
12.39282,299548
12.39908,315373
12.40533,260953
12.41158,207603
12.41785,173126
12.42410,169041
12.43035,195318
12.43662,254431
12.44287,318650
12.44912,326979
12.45537,290341
12.46163,232242
12.46788,185403
12.47413,245728
12.48040,482777
12.48665,998874
12.49290,1764223
12.49917,2362127
12.50542,2330541
12.51167,1658382
12.51793,832732
12.52418,363198
12.53043,220308
12.53670,279828
12.54295,401052
12.54920,523893
12.55547,509684
12.56172,390263
12.56797,291113
12.57423,332209
12.58048,548019
12.58673,957802
12.59300,1398837
12.59925,1519696
12.60550,1370208
12.61177,1301862
12.61802,1647218
12.62427,2422949
12.63053,3349698
12.63678,4470929
12.64303,6165216
12.64930,8196116
12.65555,1.083407E+07
12.66180,1.407985E+07
12.66805,1.777384E+07
12.67432,2.067687E+07
12.68057,2.065112E+07
12.68682,1.431811E+07
12.69308,5582467
12.69933,1247307
12.70558,376016
12.71185,250337
12.71810,238388
12.72435,250730
12.73062,289333
12.73687,351175
12.74312,407430
12.74938,408448
12.75563,375676
12.76188,332801
12.76815,308772
12.77440,274526
12.78065,240457
12.78692,206302
12.79317,191647
12.79942,183945
12.80568,182435
12.81193,175598
12.81818,166235
12.82445,155197
12.83070,153102
12.83695,155532
12.84322,149988
12.84947,153647
12.85572,153933
12.86198,161713
12.86823,169839
12.87448,200130
12.88075,275097
12.88700,482403
12.89325,840074
12.89950,1193313
12.90577,1231149
12.91202,915174
12.91827,542755
12.92453,304310
12.93078,208333
12.93703,160320
12.94330,139911
12.94955,122472
12.95580,111895
12.96207,107781
12.96832,97480
12.97457,92127
12.98083,93164
12.98708,101583
12.99333,107357
12.99960,115378
13.00585,131841
13.01210,152460
13.01837,172082
13.02462,208623
13.03087,274441
13.03713,361132
13.04338,407172
13.04963,363052
13.05590,249714
13.06215,154051
13.06840,121957
13.07467,127926
13.08092,159664
13.08717,202238
13.09343,236030
13.09968,257937
13.10593,267543
13.11218,268511
13.11845,255960
13.12470,228506
13.13095,203863
13.13722,194074
13.14347,198620
13.14972,202740
13.15598,188347
13.16223,170072
13.16848,158218
13.17475,137661
13.18100,118194
13.18725,102361
13.19352,97829
13.19977,95076
13.20602,101028
13.21228,105595
13.21853,112068
13.22478,124811
13.23105,134439
13.23730,151423
13.24355,164994
13.24982,161581
13.25607,153020
13.26232,155470
13.26858,160486
13.27483,150605
13.28108,139511
13.28735,124421
13.29360,121406
13.29985,130518
13.30612,134923
13.31237,137536
13.31862,126044
13.32487,114221
13.33113,102642
13.33738,98178
13.34363,110514
13.34990,124775
13.35615,137926
13.36240,146362
13.36867,124795
13.37492,114367
13.38117,99503
13.38743,91362
13.39368,84491
13.39993,88451
13.40620,88690
13.41245,93792
13.41870,102245
13.42497,119882
13.43122,144014
13.43747,171574
13.44373,196931
13.44998,205935
13.45623,184249
13.46250,148257
13.46875,121384
13.47500,109483
13.48127,110386
13.48752,110840
13.49377,118103
13.50003,118969
13.50628,119516
13.51253,115486
13.51880,120506
13.52505,129719
13.53130,135746
13.53757,157066
13.54382,210441
13.55007,338878
13.55632,512727
13.56258,639106
13.56883,576434
13.57508,387626
13.58135,221886
13.58760,143437
13.59385,121994
13.60012,122536
13.60637,126396
13.61262,135418
13.61888,142951
13.62513,154748
13.63138,150030
13.63765,141912
13.64390,124190
13.65015,113142
13.65642,100120
13.66267,93325
13.66892,94840
13.67518,107325
13.68143,112817
13.68768,117954
13.69395,122986
13.70020,123053
13.70645,116647
13.71272,114768
13.71897,109523
13.72522,106777
13.73148,105753
13.73773,109476
13.74398,116483
13.75025,141148
13.75650,238580
13.76275,445426
13.76900,677565
13.77527,710195
13.78152,553628
13.78777,327803
13.79403,185899
13.80028,154618
13.80653,168140
13.81280,247753
13.81905,423094
13.82530,755293
13.83157,1175456
13.83782,1276850
13.84407,1000275
13.85033,563242
13.85658,318941
13.86283,238751
13.86910,194068
13.87535,175807
13.88160,215371
13.88787,377923
13.89412,795976
13.90037,1639835
13.90663,3110853
13.91288,4945129
13.91913,6452670
13.92540,5930038
13.93165,3597972
13.93790,1473140
13.94417,444368
13.95042,167685
13.95667,123682
13.96293,117383
13.96918,109659
13.97543,109669
13.98168,111350
13.98795,121771
13.99420,138084
14.00045,150801
14.00672,183169
14.01297,216442
14.01922,237142
14.02548,215619
14.03173,170936
14.03798,127037
14.04425,113083
14.05050,115337
14.05675,125257
14.06302,142925
14.06927,176196
14.07552,208645
14.08178,212054
14.08803,181295
14.09428,146427
14.10055,118569
14.10680,110481
14.11305,115011
14.11932,118026
14.12557,126504
14.13182,125133
14.13808,120081
14.14433,101107
14.15058,96205
14.15685,94050
14.16310,105295
14.16935,103421
14.17562,97776
14.18187,98687
14.18812,91424
14.19438,96199
14.20063,99628
14.20688,102960
14.21313,104343
14.21940,110769
14.22565,119768
14.23190,129212
14.23817,122329
14.24442,115099
14.25067,98556
14.25693,88964
14.26318,93460
14.26943,100937
14.27570,107106
14.28195,115281
14.28820,128320
14.29447,144341
14.30072,162569
14.30697,173993
14.31323,167505
14.31948,175251
14.32573,204472
14.33200,245063
14.33825,250371
14.34450,222059
14.35077,206861
14.35702,183494
14.36327,165345
14.36953,149928
14.37578,143830
14.38203,144949
14.38830,150648
14.39455,167244
14.40080,197623
14.40707,217857
14.41332,231640
14.41957,223512
14.42582,212815
14.43208,195333
14.43833,186781
14.44458,177473
14.45085,199435
14.45710,278765
14.46335,411065
14.46962,631370
14.47587,936318
14.48212,1217342
14.48838,1299674
14.49463,1059480
14.50088,676743
14.50715,376709
14.51340,220785
14.51965,152926
14.52592,153176
14.53217,156853
14.53842,157043
14.54468,150544
14.55093,141211
14.55718,149934
14.56345,155244
14.56970,168872
14.57595,184795
14.58222,186190
14.58847,165628
14.59472,150230
14.60098,141765
14.60723,148856
14.61348,162580
14.61975,167118
14.62600,161618
14.63225,151889
14.63850,166782
14.64477,212661
14.65102,269702
14.65727,305031
14.66353,281809
14.66978,231998
14.67603,199953
14.68230,188809
14.68855,177739
14.69480,192559
14.70107,230253
14.70732,274619
14.71357,328478
14.71983,412545
14.72608,587728
14.73233,966000
14.73860,1439261
14.74485,1802989
14.75110,1639526
14.75737,1291149
14.76362,871947
14.76987,538769
14.77613,316382
14.78238,190956
14.78863,167569
14.79490,199424
14.80115,289749
14.80740,469268
14.81367,696237
14.81992,717124
14.82617,575123
14.83243,323288
14.83868,172777
14.84493,112066
14.85120,101134
14.85745,101283
14.86370,110537
14.86995,114478
14.87622,122491
14.88247,124355
14.88872,125609
14.89498,118084
14.90123,108214
14.90748,106462
14.91375,113495
14.92000,127219
14.92625,153110
14.93252,174065
14.93877,190908
14.94502,176152
14.95128,161735
14.95753,153754
14.96378,153660
14.97005,160738
14.97630,175114
14.98255,187767
14.98882,199653
14.99507,192426
15.00132,188269
15.00758,185186
15.01383,178768
15.02008,163969
15.02635,159173
15.03260,159866
15.03885,167188
15.04512,186345
15.05137,200010
15.05762,210690
15.06388,222261
15.07013,225348
15.07638,219911
15.08263,213164
15.08890,223947
15.09515,250826
15.10140,298103
15.10767,326304
15.11392,358583
15.12017,404410
15.12643,492811
15.13268,586624
15.13893,733845
15.14520,861793
15.15145,957798
15.15770,1053661
15.16397,1520820
15.17022,2848661
15.17647,4749609
15.18273,5598981
15.18898,4301012
15.19523,2414173
15.20150,975937
15.20775,388562
15.21400,203728
15.22027,148594
15.22652,128415
15.23277,121769
15.23903,122758
15.24528,129799
15.25153,135107
15.25780,143619
15.26405,144082
15.27030,142428
15.27657,138839
15.28282,139242
15.28907,140287
15.29533,138822
15.30158,144871
15.30783,145526
15.31408,144133
15.32035,143364
15.32660,157117
15.33285,176210
15.33912,181826
15.34537,167042
15.35162,155439
15.35788,164439
15.36413,201320
15.37038,229753
15.37665,222444
15.38290,189184
15.38915,154664
15.39542,138739
15.40167,123642
15.40792,117681
15.41418,118303
15.42043,124381
15.42668,136943
15.43295,159827
15.43920,180695
15.44545,203445
15.45172,241020
15.45797,285425
15.46422,300094
15.47048,256438
15.47673,196947
15.48298,156634
15.48925,132691
15.49550,131702
15.50175,151474
15.50802,186033
15.51427,257943
15.52052,431069
15.52677,775239
15.53303,1450444
15.53928,2516694
15.54553,4215341
15.55180,6717708
15.55805,9415358
15.56430,9503348
15.57057,5907716
15.57682,2322168
15.58307,698013
15.58933,293050
15.59558,232916
15.60183,228023
15.60810,223632
15.61435,199597
15.62060,176284
15.62687,166689
15.63312,183617
15.63937,200481
15.64563,201672
15.65188,183971
15.65813,159670
15.66440,155683
15.67065,150705
15.67690,165462
15.68317,179293
15.68942,191050
15.69567,198184
15.70193,208013
15.70818,211591
15.71443,196877
15.72070,162407
15.72695,141548
15.73320,130386
15.73947,137714
15.74572,156108
15.75197,159273
15.75822,152526
15.76448,134357
15.77073,120093
15.77698,109818
15.78325,108427
15.78950,119192
15.79575,132877
15.80202,145042
15.80827,141699
15.81452,126589
15.82078,115701
15.82703,113615
15.83328,122376
15.83955,158020
15.84580,211109
15.85205,252921
15.85832,254630
15.86457,203833
15.87082,157384
15.87708,147296
15.88333,143264
15.88958,142649
15.89585,129672
15.90210,130376
15.90835,123762
15.91462,108521
15.92087,107062
15.92712,105925
15.93338,106355
15.93963,105748
15.94588,111398
15.95215,110429
15.95840,115429
15.96465,122316
15.97090,135785
15.97717,133324
15.98342,118131
15.98967,105323
15.99593,89148
16.00218,90440
16.00843,104950
16.01470,133617
16.02095,169554
16.02720,226301
16.03347,306924
16.03972,455956
16.04597,741595
16.05223,1130113
16.05848,1385886
16.06473,1234589
16.07100,953172
16.07725,781837
16.08350,901090
16.08977,1085766
16.09602,1080350
16.10227,912790
16.10853,754664
16.11478,737178
16.12103,842606
16.12730,921542
16.13355,842510
16.13980,629902
16.14607,411610
16.15232,277678
16.15857,219454
16.16483,214825
16.17108,227855
16.17733,238863
16.18360,228223
16.18985,218495
16.19610,275940
16.20235,329697
16.20862,314729
16.21487,232479
16.22112,158970
16.22738,116564
16.23363,104145
16.23988,101915
16.24615,104902
16.25240,123401
16.25865,148291
16.26492,171983
16.27117,172158
16.27742,150467
16.28368,125758
16.28993,104813
16.29618,94677
16.30245,89813
16.30870,88020
16.31495,90921
16.32122,94677
16.32747,104660
16.33372,118033
16.33998,129356
16.34623,136390
16.35248,146339
16.35875,137357
16.36500,134866
16.37125,121817
16.37752,117158
16.38377,108719
16.39002,102733
16.39628,100724
16.40253,104950
16.40878,112230
16.41503,115519
16.42130,119725
16.42755,135229
16.43380,193534
16.44007,360516
16.44632,677011
16.45257,1058324
16.45883,1162928
16.46508,952573
16.47133,632974
16.47760,442780
16.48385,329777
16.49010,266878
16.49637,212645
16.50262,196340
16.50887,216633
16.51513,284033
16.52138,398877
16.52763,522805
16.53390,584241
16.54015,532514
16.54640,436800
16.55267,365532
16.55892,326521
16.56517,282928
16.57143,231359
16.57768,201523
16.58393,192592
16.59020,193685
16.59645,205699
16.60270,210338
16.60897,212243
16.61522,224593
16.62147,237316
16.62772,245076
16.63398,266990
16.64023,283420
16.64648,328355
16.65275,389013
16.65900,400903
16.66525,372736
16.67152,290641
16.67777,241301
16.68402,218940
16.69028,217845
16.69653,214711
16.70278,193085
16.70905,179656
16.71530,159849
16.72155,153622
16.72782,158133
16.73407,174514
16.74032,221391
16.74658,338625
16.75283,592512
16.75908,1130219
16.76535,2147606
16.77160,4192728
16.77785,8174931
16.78412,1.340888E+07
16.79037,1.781317E+07
16.79662,1.892343E+07
16.80288,1.526342E+07
16.80913,9811602
16.81538,6311931
16.82165,4854403
16.82790,4726284
16.83415,5530361
16.84042,7240848
16.84667,9180893
16.85292,1.015637E+07
16.85917,9537869
16.86543,7945604
16.87168,5856315
16.87793,4813113
16.88420,5659185
16.89045,8132610
16.89670,1.133026E+07
16.90297,1.333738E+07
16.90922,1.218586E+07
16.91547,9472702
16.92173,5999299
16.92798,3662199
16.93423,2654801
16.94050,2525842
16.94675,2539257
16.95300,2435690
16.95927,2433864
16.96552,2531390
16.97177,2506426
16.97803,1991966
16.98428,1291938
16.99053,782061
16.99680,567443
17.00305,626932
17.00930,1223476
17.01557,2973725
17.02182,6883287
17.02807,1.301141E+07
17.03433,2.014303E+07
17.04058,2.744567E+07
17.04683,3.215431E+07
17.05310,3.720282E+07
17.05935,4.236812E+07
17.06560,4.665244E+07
17.07185,4.863794E+07
17.07812,4.826242E+07
17.08437,4.66291E+07
17.09062,4.33839E+07
17.09688,4.081175E+07
17.10313,3.839776E+07
17.10938,3.716491E+07
17.11565,3.611756E+07
17.12190,3.854598E+07
17.12815,3.699455E+07
17.13442,9617831
17.14067,8015354
17.14692,7769859
17.15318,7689289
17.15943,9688834
17.16568,1.597439E+07
17.17195,2.641374E+07
17.17820,3.573271E+07
17.18445,4.09554E+07
17.19072,3.986312E+07
17.19697,2.783021E+07
17.20322,8242208
17.20948,2277761
17.21573,2242437
17.22198,3324119
17.22825,4812955
17.23450,6177376
17.24075,8671165
17.24702,1.450635E+07
17.25327,2.434871E+07
17.25952,3.610289E+07
17.26578,4.511508E+07
17.27203,4.827096E+07
17.27828,4.731183E+07
17.28453,3.595467E+07
17.29080,1.291427E+07
17.29705,5853222
17.30330,7377865
17.30957,9867198
17.31582,9667672
17.32207,6455775
17.32833,2921270
17.33458,1195077
17.34083,628059
17.34710,506262
17.35335,463682
17.35960,429319
17.36587,406363
17.37212,395754
17.37837,417082
17.38463,450093
17.39088,497339
17.39713,527826
17.40340,587329
17.40965,758481
17.41590,1029240
17.42217,1318974
17.42842,1475142
17.43467,1328695
17.44093,1174045
17.44718,1240297
17.45343,1767786
17.45970,2594183
17.46595,3182305
17.47220,2756459
17.47847,1901669
17.48472,1136124
17.49097,851761
17.49723,734814
17.50348,618730
17.50973,549775
17.51598,529245
17.52225,558707
17.52850,582205
17.53475,503109
17.54102,394124
17.54727,330477
17.55352,371163
17.55978,548645
17.56603,960099
17.57228,1989639
17.57855,4162847
17.58480,6799266
17.59105,8641595
17.59732,7076812
17.60357,3932863
17.60982,1607506
17.61608,705955
17.62233,589196
17.62858,676871
17.63485,719444
17.64110,596227
17.64735,427820
17.65362,316164
17.65987,255470
17.66612,233886
17.67238,228499
17.67863,232933
17.68488,239629
17.69115,260160
17.69740,270571
17.70365,259932
17.70992,246802
17.71617,232169
17.72242,215635
17.72867,201061
17.73493,206658
17.74118,222319
17.74743,245141
17.75370,262683
17.75995,271443
17.76620,287937
17.77247,331054
17.77872,438975
17.78497,621253
17.79123,944927
17.79748,1504982
17.80373,2201750
17.81000,2659144
17.81625,2244709
17.82250,1559158
17.82877,1005705
17.83502,691700
17.84127,613988
17.84753,617278
17.85378,592806
17.86003,714533
17.86630,1386472
17.87255,3000553
17.87880,5389411
17.88507,7103931
17.89132,6488624
17.89757,3854674
17.90383,1609139
17.91008,652680
17.91633,367154
17.92260,289069
17.92885,258443
17.93510,239063
17.94135,239963
17.94762,242837
17.95387,254408
17.96012,264602
17.96638,263195
17.97263,253988
17.97888,232309
17.98515,217719
17.99140,209142
17.99765,224658
18.00392,258529
18.01017,310036
18.01642,346933
18.02268,344991
18.02893,311423
18.03518,281442
18.04145,255790
18.04770,249556
18.05395,242036
18.06022,218820
18.06647,193135
18.07272,174730
18.07898,170490
18.08523,178560
18.09148,206445
18.09775,237996
18.10400,292005
18.11025,338052
18.11652,363398
18.12277,423163
18.12902,635898
18.13528,1263324
18.14153,2579874
18.14778,4475032
18.15405,5663333
18.16030,4342215
18.16655,2191283
18.17280,870612
18.17907,359180
18.18532,227374
18.19157,191608
18.19783,179286
18.20408,181895
18.21033,200157
18.21660,219927
18.22285,247710
18.22910,255201
18.23537,239026
18.24162,211972
18.24787,192279
18.25413,189778
18.26038,200688
18.26663,220784
18.27290,251366
18.27915,312749
18.28540,417878
18.29167,634057
18.29792,1035265
18.30417,1677283
18.31043,1946269
18.31668,1716442
18.32293,1048316
18.32920,516024
18.33545,250378
18.34170,162518
18.34797,136152
18.35422,124558
18.36047,126818
18.36673,129317
18.37298,136152
18.37923,151765
18.38548,186835
18.39175,235958
18.39800,270975
18.40425,267991
18.41052,218954
18.41677,179267
18.42302,156015
18.42928,144791
18.43553,135102
18.44178,133279
18.44805,125329
18.45430,121843
18.46055,127009
18.46682,135359
18.47307,143661
18.47932,147433
18.48558,146427
18.49183,137170
18.49808,129273
18.50435,122399
18.51060,124864
18.51685,129474
18.52312,129989
18.52937,137163
18.53562,142685
18.54188,148114
18.54813,148243
18.55438,151294
18.56065,147997
18.56690,145022
18.57315,143946
18.57942,135655
18.58567,129062
18.59192,123152
18.59818,125607
18.60443,124787
18.61068,130323
18.61693,135808
18.62320,139094
18.62945,135438
18.63570,142664
18.64197,152811
18.64822,176057
18.65447,180903
18.66073,170092
18.66698,156675
18.67323,140499
18.67950,140505
18.68575,142365
18.69200,135709
18.69827,134335
18.70452,131764
18.71077,143941
18.71703,170412
18.72328,183792
18.72953,185394
18.73580,163665
18.74205,140544
18.74830,124412
18.75457,122096
18.76082,117172
18.76707,119002
18.77333,118650
18.77958,117223
18.78583,114982
18.79210,120875
18.79835,116721
18.80460,120773
18.81087,125210
18.81712,133296
18.82337,134992
18.82962,134900
18.83588,131993
18.84213,142981
18.84838,172851
18.85465,265425
18.86090,525002
18.86715,1278932
18.87342,3071944
18.87967,6262996
18.88592,1.023813E+07
18.89218,1.3915E+07
18.89843,1.469009E+07
18.90468,1.236373E+07
18.91095,8933106
18.91720,5667086
18.92345,3019799
18.92972,1165435
18.93597,437730
18.94222,241075
18.94848,207040
18.95473,196587
18.96098,176356
18.96725,163706
18.97350,147780
18.97975,141128
18.98602,139686
18.99227,137888
18.99852,139409
19.00478,140592
19.01103,157268
19.01728,163183
19.02355,160865
19.02980,151967
19.03605,153108
19.04232,157625
19.04857,173346
19.05482,181995
19.06107,182629
19.06733,161985
19.07358,140557
19.07983,124266
19.08610,121276
19.09235,119074
19.09860,114963
19.10487,120568
19.11112,122340
19.11737,124810
19.12363,124520
19.12988,131059
19.13613,151998
19.14240,162896
19.14865,165242
19.15490,152382
19.16117,140099
19.16742,134389
19.17367,127132
19.17993,121691
19.18618,123223
19.19243,128492
19.19870,128486
19.20495,124688
19.21120,113026
19.21747,104100
19.22372,104378
19.22997,100917
19.23623,100470
19.24248,102666
19.24873,106836
19.25500,107082
19.26125,110216
19.26750,109169
19.27375,105134
19.28002,107814
19.28627,107008
19.29252,114340
19.29878,112406
19.30503,112290
19.31128,103227
19.31755,96818
19.32380,92502
19.33005,97073
19.33632,101558
19.34257,110584
19.34882,121432
19.35508,133327
19.36133,139967
19.36758,141723
19.37385,136724
19.38010,137125
19.38635,135493
19.39262,130162
19.39887,134813
19.40512,141838
19.41138,141767
19.41763,134733
19.42388,119871
19.43015,100940
19.43640,96772
19.44265,94951
19.44892,98485
19.45517,94472
19.46142,96746
19.46768,94708
19.47393,97395
19.48018,97373
19.48645,99745
19.49270,100584
19.49895,107275
19.50520,109502
19.51147,116403
19.51772,126992
19.52397,139385
19.53023,140953
19.53648,129801
19.54273,121153
19.54900,115901
19.55525,117994
19.56150,119278
19.56777,110272
19.57402,107167
19.58027,99837
19.58653,99603
19.59278,99622
19.59903,99279
19.60530,101069
19.61155,92796
19.61780,95130
19.62407,100456
19.63032,117383
19.63657,144528
19.64283,166904
19.64908,169453
19.65533,149175
19.66160,120863
19.66785,123253
19.67410,133940
19.68037,170436
19.68662,193993
19.69287,205432
19.69913,191605
19.70538,179584
19.71163,176652
19.71788,174156
19.72415,160917
19.73040,139426
19.73665,124000
19.74292,115272
19.74917,117157
19.75542,117376
19.76168,116391
19.76793,116954
19.77418,119769
19.78045,127771
19.78670,119593
19.79295,109254
19.79922,109676
19.80547,100554
19.81172,100195
19.81798,98739
19.82423,96693
19.83048,92561
19.83675,93806
19.84300,91951
19.84925,94235
19.85552,104121
19.86177,116932
19.86802,126235
19.87428,130761
19.88053,128291
19.88678,116052
19.89305,113956
19.89930,131009
19.90555,224198
19.91182,615417
19.91807,1763538
19.92432,4144384
19.93057,6941789
19.93683,8269977
19.94308,6810929
19.94933,3500992
19.95560,1283554
19.96185,437285
19.96810,205790
19.97437,161558
19.98062,162730
19.98687,162669
19.99313,156106
19.99938,137927
20.00563,121148
20.01190,111260
20.01815,105960
20.02440,104918
20.03067,100682
20.03692,103994
20.04317,104341
20.04943,105303
20.05568,105910
20.06193,101585
20.06820,101491
20.07445,94864
20.08070,98194
20.08697,105858
20.09322,120518
20.09947,131760
20.10573,139659
20.11198,128593
20.11823,113991
20.12450,99675
20.13075,96652
20.13700,93987
20.14327,94345
20.14952,92998
20.15577,93625
20.16202,97870
20.16828,100031
20.17453,101657
20.18078,104385
20.18705,106361
20.19330,103019
20.19955,107280
20.20582,109475
20.21207,103875
20.21832,114624
20.22458,121543
20.23083,128305
20.23708,128460
20.24335,129638
20.24960,127096
20.25585,115595
20.26212,113683
20.26837,113817
20.27462,118660
20.28088,121829
20.28713,136475
20.29338,174026
20.29965,276940
20.30590,405733
20.31215,530983
20.31842,532086
20.32467,389868
20.33092,244554
20.33718,164279
20.34343,133074
20.34968,131710
20.35595,131323
20.36220,130291
20.36845,122364
20.37470,117872
20.38097,114832
20.38722,112440
20.39347,111840
20.39973,111673
20.40598,107118
20.41223,109918
20.41850,113740
20.42475,145383
20.43100,224747
20.43727,417175
20.44352,685600
20.44977,938019
20.45603,933440
20.46228,691795
20.46853,417841
20.47480,284274
20.48105,275729
20.48730,333728
20.49357,373728
20.49982,346250
20.50607,259837
20.51233,195472
20.51858,158895
20.52483,146219
20.53110,142556
20.53735,151776
20.54360,141985
20.54987,154780
20.55612,169070
20.56237,177810
20.56863,183034
20.57488,181126
20.58113,237044
20.58738,365053
20.59365,564220
20.59990,756951
20.60615,708479
20.61242,479553
20.61867,286076
20.62492,186671
20.63118,159563
20.63743,156483
20.64368,163748
20.64995,162424
20.65620,145178
20.66245,131739
20.66872,133581
20.67497,134209
20.68122,129105
20.68748,125503
20.69373,123453
20.69998,120167
20.70625,127997
20.71250,163574
20.71875,249227
20.72502,381510
20.73127,503734
20.73752,519778
20.74378,412137
20.75003,288102
20.75628,231704
20.76255,264522
20.76880,385294
20.77505,501214
20.78132,511147
20.78757,437991
20.79382,306173
20.80008,210573
20.80633,165566
20.81258,146558
20.81883,135368
20.82510,130512
20.83135,126175
20.83760,123226
20.84387,123053
20.85012,124086
20.85637,131241
20.86263,134493
20.86888,130961
20.87513,128191
20.88140,124041
20.88765,117501
20.89390,116716
20.90017,109704
20.90642,114715
20.91267,111996
20.91893,118025
20.92518,125105
20.93143,155666
20.93770,251440
20.94395,451465
20.95020,704649
20.95647,823820
20.96272,753243
20.96897,543992
20.97523,366589
20.98148,268825
20.98773,217897
20.99400,183385
21.00025,153121
21.00650,134253
21.01277,139367
21.01902,140912
21.02527,145782
21.03152,143602
21.03778,151649
21.04403,150363
21.05028,153478
21.05655,143895
21.06280,130871
21.06905,119531
21.07532,119558
21.08157,124112
21.08782,128537
21.09408,125704
21.10033,123918
21.10658,125292
21.11285,133286
21.11910,155711
21.12535,177498
21.13162,170504
21.13787,153270
21.14412,138375
21.15038,128287
21.15663,121135
21.16288,117625
21.16915,114557
21.17540,109883
21.18165,109739
21.18792,113412
21.19417,123609
21.20042,127117
21.20668,142027
21.21293,148285
21.21918,156657
21.22545,154638
21.23170,143399
21.23795,125835
21.24422,124768
21.25047,122542
21.25672,119359
21.26297,114726
21.26923,112854
21.27548,112243
21.28173,119321
21.28800,132178
21.29425,140416
21.30050,137708
21.30677,137029
21.31302,132197
21.31927,147310
21.32553,192368
21.33178,263114
21.33803,284067
21.34430,242468
21.35055,187724
21.35680,143041
21.36307,123311
21.36932,121913
21.37557,129452
21.38183,134132
21.38808,130703
21.39433,125636
21.40060,110124
21.40685,110492
21.41310,109582
21.41937,109711
21.42562,116549
21.43187,120796
21.43813,127779
21.44438,128697
21.45063,123798
21.45690,124135
21.46315,141122
21.46940,154243
21.47565,161914
21.48192,153214
21.48817,129709
21.49442,117771
21.50068,106977
21.50693,101023
21.51318,97956
21.51945,96172
21.52570,99476
21.53195,96886
21.53822,102755
21.54447,104618
21.55072,104619
21.55698,106803
21.56323,107559
21.56948,112457
21.57575,132866
21.58200,150700
21.58825,155769
21.59452,143403
21.60077,124651
21.60702,117522
21.61328,110417
21.61953,104476
21.62578,99659
21.63205,95028
21.63830,93727
21.64455,91200
21.65082,90486
21.65707,94193
21.66332,92614
21.66958,95599
21.67583,96871
21.68208,97856
21.68835,99944
21.69460,96346
21.70085,96392
21.70710,93834
21.71337,92802
21.71962,94149
21.72587,99931
21.73213,102180
21.73838,104166
21.74463,102755
21.75090,99464
21.75715,95799
21.76340,101752
21.76967,98283
21.77592,93773
21.78217,93434
21.78843,98088
21.79468,100524
21.80093,100038
21.80720,108530
21.81345,115098
21.81970,130667
21.82597,129119
21.83222,119529
21.83847,110667
21.84473,106196
21.85098,99485
21.85723,101775
21.86350,100034
21.86975,103173
21.87600,97740
21.88227,97372
21.88852,100775
21.89477,102296
21.90103,111727
21.90728,136913
21.91353,171794
21.91978,199067
21.92605,192855
21.93230,174897
21.93855,157445
21.94482,145519
21.95107,139931
21.95732,130104
21.96358,115632
21.96983,109252
21.97608,108049
21.98235,110609
21.98860,110485
21.99485,112011
22.00112,115616
22.00737,112963
22.01362,121740
22.01988,120015
22.02613,118364
22.03238,120588
22.03865,133790
22.04490,140098
22.05115,152029
22.05742,162405
22.06367,165478
22.06992,174920
22.07618,197055
22.08243,222825
22.08868,212536
22.09495,182294
22.10120,144620
22.10745,125165
22.11372,119898
22.11997,118453
22.12622,120286
22.13248,125293
22.13873,122788
22.14498,116039
22.15123,116044
22.15750,115131
22.16375,116585
22.17000,120643
22.17627,119985
22.18252,116030
22.18877,114021
22.19503,119133
22.20128,111133
22.20753,113616
22.21380,114487
22.22005,118335
22.22630,118774
22.23257,122690
22.23882,130281
22.24507,154671
22.25133,192175
22.25758,235126
22.26383,270758
22.27010,279020
22.27635,254357
22.28260,222850
22.28887,205760
22.29512,189302
22.30137,173865
22.30763,165829
22.31388,148868
22.32013,136471
22.32640,125505
22.33265,123050
22.33890,121624
22.34517,128833
22.35142,178170
22.35767,339701
22.36392,671755
22.37018,1144695
22.37643,1367383
22.38268,1151156
22.38895,740294
22.39520,376260
22.40145,206770
22.40772,149061
22.41397,137100
22.42022,133336
22.42648,137641
22.43273,138110
22.43898,142642
22.44525,150266
22.45150,170742
22.45775,202015
22.46402,246155
22.47027,289598
22.47652,287327
22.48278,242974
22.48903,209544
22.49528,182804
22.50155,175021
22.50780,168069
22.51405,158872
22.52032,151725
22.52657,135853
22.53282,145861
22.53908,164066
22.54533,204188
22.55158,247813
22.55785,288755
22.56410,287402
22.57035,251486
22.57660,203667
22.58287,169454
22.58912,147503
22.59537,139015
22.60163,130205
22.60788,128261
22.61413,127272
22.62040,125645
22.62665,133548
22.63290,142935
22.63917,180836
22.64542,230852
22.65167,273885
22.65793,278871
22.66418,244848
22.67043,203125
22.67670,171626
22.68295,157588
22.68920,153174
22.69547,144525
22.70172,140864
22.70797,135356
22.71423,133917
22.72048,135985
22.72673,135096
22.73300,136525
22.73925,128261
22.74550,126311
22.75177,127750
22.75802,128598
22.76427,138739
22.77053,150747
22.77678,173520
22.78303,235894
22.78930,457110
22.79555,1297456
22.80180,3094473
22.80805,5895391
22.81432,7431696
22.82057,6529999
22.82682,4356633
22.83308,2015681
22.83933,833788
22.84558,397191
22.85185,251510
22.85810,204926
22.86435,182903
22.87062,169325
22.87687,168570
22.88312,157622
22.88938,154581
22.89563,147657
22.90188,144843
22.90815,139883
22.91440,138517
22.92065,135396
22.92692,137273
22.93317,131917
22.93942,133004
22.94568,135660
22.95193,138476
22.95818,138802
22.96445,139006
22.97070,140191
22.97695,147590
22.98322,157045
22.98947,156138
22.99572,155246
23.00198,147076
23.00823,142153
23.01448,135860
23.02073,128087
23.02700,129531
23.03325,131699
23.03950,129837
23.04577,130862
23.05202,133770
23.05827,130765
23.06453,127949
23.07078,130621
23.07703,137610
23.08330,137059
23.08955,143345
23.09580,138473
23.10207,138522
23.10832,138026
23.11457,132755
23.12083,130752
23.12708,130184
23.13333,127488
23.13960,123238
23.14585,129143
23.15210,123608
23.15837,125540
23.16462,124434
23.17087,123380
23.17713,130332
23.18338,125405
23.18963,127754
23.19590,127041
23.20215,127475
23.20840,129034
23.21467,131619
23.22092,131615
23.22717,128347
23.23342,134496
23.23968,146572
23.24593,170083
23.25218,190015
23.25845,194501
23.26470,183302
23.27095,161544
23.27722,143392
23.28347,138032
23.28972,130277
23.29598,136542
23.30223,131859
23.30848,132479
23.31475,135502
23.32100,131812
23.32725,135146
23.33352,131013
23.33977,130507
23.34602,131070
23.35228,130607
23.35853,134345
23.36478,134135
23.37105,137846
23.37730,143833
23.38355,143209
23.38982,147576
23.39607,152922
23.40232,155897
23.40858,149627
23.41483,147453
23.42108,139572
23.42735,137061
23.43360,136790
23.43985,137453
23.44612,136042
23.45237,139049
23.45862,138433
23.46487,142003
23.47113,144066
23.47738,152752
23.48363,156644
23.48990,163342
23.49615,169155
23.50240,172691
23.50867,186827
23.51492,214994
23.52117,257519
23.52743,282363
23.53368,283192
23.53993,242871
23.54620,200776
23.55245,179799
23.55870,161509
23.56497,163069
23.57122,162039
23.57747,172768
23.58373,186075
23.58998,196009
23.59623,202010
23.60250,194725
23.60875,188791
23.61500,178981
23.62127,171716
23.62752,160318
23.63377,159368
23.64003,151685
23.64628,153371
23.65253,150313
23.65880,150340
23.66505,150277
23.67130,150674
23.67755,150593
23.68382,151999
23.69007,150930
23.69632,158291
23.70258,154367
23.70883,158051
23.71508,165218
23.72135,181840
23.72760,208099
23.73385,249266
23.74012,268199
23.74637,253712
23.75262,226363
23.75888,197833
23.76513,181274
23.77138,172557
23.77765,171271
23.78390,174056
23.79015,171586
23.79642,169051
23.80267,170141
23.80892,170883
23.81518,170132
23.82143,165839
23.82768,166979
23.83395,167607
23.84020,171125
23.84645,174025
23.85272,173485
23.85897,174711
23.86522,171267
23.87148,176537
23.87773,179360
23.88398,181410
23.89023,193890
23.89650,199406
23.90275,197846
23.90900,195920
23.91527,187656
23.92152,190197
23.92777,195615
23.93403,193735
23.94028,196533
23.94653,206909
23.95280,246020
23.95905,373856
23.96530,702602
23.97157,1149993
23.97782,1436034
23.98407,1375203
23.99033,998996
23.99658,710941
24.00283,528652
24.00910,420724
24.01535,359915
24.02160,292630
24.02787,248454
24.03412,226626
24.04037,221470
24.04663,218467
24.05288,224423
24.05913,252001
24.06540,324350
24.07165,448800
24.07790,597523
24.08417,688193
24.09042,661844
24.09667,520700
24.10293,396961
24.10918,326488
24.11543,296329
24.12168,283916
24.12795,276010
24.13420,268174
24.14045,257336
24.14672,245939
24.15297,241838
24.15922,247238
24.16548,254206
24.17173,279394
24.17798,319093
24.18425,398692
24.19050,501114
24.19675,703498
24.20302,1255277
24.20927,2890120
24.21552,6057473
24.22178,1.134934E+07
24.22803,1.921146E+07
24.23428,2.77836E+07
24.24055,3.494997E+07
24.24680,3.890477E+07
24.25305,4.009974E+07
24.25932,3.581316E+07
24.26557,1.94949E+07
24.27182,6519939
24.27808,3329290
24.28433,2546178
24.29058,2191543
24.29685,2035861
24.30310,1910905
24.30935,1808017
24.31562,1785332
24.32187,1767805
24.32812,1757040
24.33437,1794238
24.34063,1893028
24.34688,1939538
24.35313,2024361
24.35940,2119282
24.36565,2214610
24.37190,2218170
24.37817,2201614
24.38442,2252495
24.39067,2198918
24.39693,2120120
24.40318,1999719
24.40943,1904306
24.41570,1829397
24.42195,1739247
24.42820,1682400
24.43447,1565215
24.44072,1501017
24.44697,1425444
24.45323,1355394
24.45948,1273728
24.46573,1225622
24.47200,1160922
24.47825,1098769
24.48450,1047586
24.49077,1033075
24.49702,995616
24.50327,957840
24.50953,902015
24.51578,894884
24.52203,882826
24.52830,839396
24.53455,806238
24.54080,769835
24.54707,743111
24.55332,715850
24.55957,677260
24.56582,642147
24.57208,620634
24.57833,587841
24.58458,566768
24.59085,547775
24.59710,520854
24.60335,499403
24.60962,464340
24.61587,431371
24.62212,401562
24.62838,378160
24.63463,366744
24.64088,360198
24.64715,359166
24.65340,360462
24.65965,358903
24.66592,349968
24.67217,324590
24.67842,292609
24.68468,268316
24.69093,248555
24.69718,234538
24.70345,223985
24.70970,213821
24.71595,211050
24.72222,204473
24.72847,196278
24.73472,195875
24.74098,193446
24.74723,193711
24.75348,191073
24.75975,190350
24.76600,190111
24.77225,192946
24.77850,197847
24.78477,191220
24.79102,182434
24.79727,166487
24.80353,158488
24.80978,149155
24.81603,143182
24.82230,139212
24.82855,139569
24.83480,139600
24.84107,134247
24.84732,134076
24.85357,129378
24.85983,136487
24.86608,134292
24.87233,141100
24.87860,172512
24.88485,244574
24.89110,350959
24.89737,441206
24.90362,453731
24.90987,378883
24.91613,291051
24.92238,242000
24.92863,235962
24.93490,221636
24.94115,209701
24.94740,183496
24.95367,172822
24.95992,158457
24.96617,154054
24.97243,155446
24.97868,141372
24.98493,130546
24.99120,128619
24.99745,125876
25.00370,117382
25.00995,122078
25.01622,117555
25.02247,115687
25.02872,113484
25.03498,112889
25.04123,113584
25.04748,112659
25.05375,111693
25.06000,114434
25.06625,112597
25.07252,115570
25.07877,114504
25.08502,108688
25.09128,113317
25.09753,107888
25.10378,107625
25.11005,110221
25.11630,111156
25.12255,109974
25.12882,107545
25.13507,107571
25.14132,108843
25.14758,102537
25.15383,104825
25.16008,107856
25.16635,109775
25.17260,114304
25.17885,133598
25.18512,159420
25.19137,201190
25.19762,226734
25.20388,224057
25.21013,192101
25.21638,153439
25.22263,132074
25.22890,118746
25.23515,115407
25.24140,110263
25.24767,108123
25.25392,110279
25.26017,107225
25.26643,113178
25.27268,109669
25.27893,115845
25.28520,126314
25.29145,153001
25.29770,190329
25.30397,222476
25.31022,226976
25.31647,197389
25.32273,165025
25.32898,136991
25.33523,124470
25.34150,124737
25.34775,115202
25.35400,111181
25.36027,115304
25.36652,113097
25.37277,112028
25.37903,109114
25.38528,114275
25.39153,139356
25.39780,200499
25.40405,340242
25.41030,562508
25.41657,813828
25.42282,911736
25.42907,747006
25.43533,539158
25.44158,369567
25.44783,279780
25.45408,223063
25.46035,196615
25.46660,176483
25.47285,161168
25.47912,151925
25.48537,149376
25.49162,155270
25.49788,169559
25.50413,196469
25.51038,216869
25.51665,217639
25.52290,204138
25.52915,195598
25.53542,196100
25.54167,229151
25.54792,276436
25.55418,292940
25.56043,268726
25.56668,226609
25.57295,178296
25.57920,151995
25.58545,136115
25.59172,127800
25.59797,125784
25.60422,126700
25.61048,129352
25.61673,130939
25.62298,128046
25.62925,125202
25.63550,117154
25.64175,114808
25.64802,107559
25.65427,107214
25.66052,106941
25.66677,104101
25.67303,106887
25.67928,108280
25.68553,108025
25.69180,112519
25.69805,109613
25.70430,108967
25.71057,106012
25.71682,102291
25.72307,105615
25.72933,103885
25.73558,104533
25.74183,111163
25.74810,107801
25.75435,110663
25.76060,108285
25.76687,107518
25.77312,105241
25.77937,106465
25.78563,105737
25.79188,104769
25.79813,105864
25.80440,103509
25.81065,99857
25.81690,103070
25.82317,96936
25.82942,98548
25.83567,98799
25.84193,101754
25.84818,103507
25.85443,100689
25.86070,105101
25.86695,109076
25.87320,104722
25.87945,103710
25.88572,102766
25.89197,98859
25.89822,99785
25.90448,99616
25.91073,97197
25.91698,96521
25.92325,99374
25.92950,99612
25.93575,98836
25.94202,104807
25.94827,104029
25.95452,106033
25.96078,98949
25.96703,102383
25.97328,100756
25.97955,98354
25.98580,95129
25.99205,94174
25.99832,93044
26.00457,96353
26.01082,95417
26.01708,96446
26.02333,97261
26.02958,100933
26.03585,100971
26.04210,101299
26.04835,100635
26.05462,102614
26.06087,102341
26.06712,102115
26.07338,99935
26.07963,97002
26.08588,98253
26.09215,99359
26.09840,93246
26.10465,96239
26.11090,95709
26.11717,97063
26.12342,95354
26.12967,97448
26.13593,97880
26.14218,97556
26.14843,95536
26.15470,99227
26.16095,100131
26.16720,96571
26.17347,96881
26.17972,99271
26.18597,100726
26.19223,100371
26.19848,105141
26.20473,100521
26.21100,99406
26.21725,98952
26.22350,98504
26.22977,101521
26.23602,100920
26.24227,99786
26.24853,96299
26.25478,100067
26.26103,101402
26.26730,101130
26.27355,98225
26.27980,101504
26.28607,104343
26.29232,100383
26.29857,99196
26.30483,104267
26.31108,103670
26.31733,102701
26.32358,106199
26.32985,101773
26.33610,102595
26.34235,102631
26.34862,104145
26.35487,105008
26.36112,105342
26.36738,109394
26.37363,109404
26.37988,109604
26.38615,105775
26.39240,107239
26.39865,108034
26.40492,111958
26.41117,108213
26.41742,109220
26.42368,110938
26.42993,112536
26.43618,109565
26.44245,111397
26.44870,110636
26.45495,108165
26.46122,108851
26.46747,111886
26.47372,111351
26.47998,113108
26.48623,112244
26.49248,117177
26.49875,118076
26.50500,118207
26.51125,114990
26.51752,119185
26.52377,120727
26.53002,125334
26.53627,131430
26.54253,139671
26.54878,134869
26.55503,130585
26.56130,122939
26.56755,118069
26.57380,116347
26.58007,119426
26.58632,115766
26.59257,117159
26.59883,116947
26.60508,122319
26.61133,134108
26.61760,135595
26.62385,145071
26.63010,143919
26.63637,132230
26.64262,136814
26.64887,148657
26.65513,189757
26.66138,308077
26.66763,538601
26.67390,853734
26.68015,1125686
26.68640,1075693
26.69267,893533
26.69892,662550
26.70517,510658
26.71143,427637
26.71768,361228
26.72393,308564
26.73020,258345
26.73645,231199
26.74270,206992
26.74897,204214
26.75522,206604
26.76147,234933
26.76772,289166
26.77398,346723
26.78023,367605
26.78648,349307
26.79275,301701
26.79900,261471
26.80525,251504
26.81152,230623
26.81777,209027
26.82402,197004
26.83028,186801
26.83653,192851
26.84278,197938
26.84905,194784
26.85530,191572
26.86155,180969
26.86782,180498
26.87407,188725
26.88032,205228
26.88658,228079
26.89283,277272
26.89908,347334
26.90535,529169
26.91160,1107942
26.91785,2378435
26.92412,4912894
26.93037,9276848
26.93662,1.561126E+07
26.94288,1.946806E+07
26.94913,2.03105E+07
26.95538,1.376958E+07
26.96165,6597750
26.96790,3033022
26.97415,1750079
26.98040,1129389
26.98667,756273
26.99292,540182
26.99917,415342
27.00543,362555
27.01168,390268
27.01793,492823
27.02420,733282
27.03045,1007850
27.03670,1181628
27.04297,1035359
27.04922,762823
27.05547,548116
27.06173,423500
27.06798,377530
27.07423,347317
27.08050,325533
27.08675,290354
27.09300,269976
27.09927,252702
27.10552,233109
27.11177,223180
27.11803,220640
27.12428,235531
27.13053,271050
27.13680,330115
27.14305,383187
27.14930,411754
27.15557,382758
27.16182,324860
27.16807,269685
27.17433,251737
27.18058,245437
27.18683,250851
27.19310,239019
27.19935,226683
27.20560,215540
27.21185,211761
27.21812,208629
27.22437,204527
27.23062,196493
27.23688,195819
27.24313,195737
27.24938,207274
27.25565,219426
27.26190,221061
27.26815,221221
27.27442,211321
27.28067,203015
27.28692,199074
27.29318,203031
27.29943,196528
27.30568,191965
27.31195,195971
27.31820,197925
27.32445,199151
27.33072,205471
27.33697,196897
27.34322,198540
27.34948,206759
27.35573,209579
27.36198,217731
27.36825,221488
27.37450,216295
27.38075,212153
27.38702,206399
27.39327,197800
27.39952,196503
27.40578,202808
27.41203,226370
27.41828,235036
27.42453,243796
27.43080,232020
27.43705,227252
27.44330,214014
27.44957,213685
27.45582,206242
27.46207,194294
27.46833,179281
27.47458,187184
27.48083,178536
27.48710,187351
27.49335,181242
27.49960,187621
27.50587,179120
27.51212,179333
27.51837,170510
27.52463,177667
27.53088,178639
27.53713,173794
27.54340,178135
27.54965,177313
27.55590,177425
27.56217,174980
27.56842,173974
27.57467,171080
27.58093,177444
27.58718,174683
27.59343,172465
27.59970,170952
27.60595,173971
27.61220,179208
27.61847,181483
27.62472,187262
27.63097,182744
27.63723,178992
27.64348,178102
27.64973,180967
27.65598,175151
27.66225,177859
27.66850,177834
27.67475,181923
27.68102,179137
27.68727,185641
27.69352,181794
27.69978,181681
27.70603,184404
27.71228,184774
27.71855,190682
27.72480,201755
27.73105,213095
27.73732,205736
27.74357,202099
27.74982,198583
27.75608,197027
27.76233,199259
27.76858,209385
27.77485,206093
27.78110,199294
27.78735,193543
27.79362,194601
27.79987,190699
27.80612,183555
27.81238,181418
27.81863,183753
27.82488,180548
27.83115,190691
27.83740,188556
27.84365,203836
27.84992,254637
27.85617,368614
27.86242,537990
27.86867,813385
27.87493,1036696
27.88118,1106482
27.88743,996138
27.89370,774540
27.89995,598915
27.90620,479618
27.91247,409486
27.91872,357813
27.92497,322386
27.93123,307114
27.93748,284058
27.94373,270175
27.95000,264536
27.95625,249560
27.96250,249955
27.96877,240762
27.97502,236082
27.98127,231075
27.98753,229609
27.99378,228689
28.00003,234565
28.00630,229936
28.01255,232451
28.01880,219295
28.02507,221484
28.03132,220130
28.03757,213386
28.04383,209950
28.05008,203383
28.05633,218410
28.06260,209363
28.06885,207365
28.07510,204372
28.08137,208213
28.08762,207028
28.09387,203909
28.10012,204955
28.10638,206791
28.11263,213220
28.11888,206640
28.12515,202593
28.13140,203580
28.13765,205062
28.14392,200241
28.15017,205374
28.15642,212413
28.16268,198274
28.16893,202950
28.17518,206671
28.18145,204696
28.18770,201751
28.19395,201626
28.20022,198511
28.20647,198801
28.21272,193872
28.21898,201896
28.22523,200156
28.23148,205602
28.23775,200870
28.24400,203122
28.25025,199328
28.25652,201526
28.26277,198165
28.26902,205907
28.27528,199357
28.28153,200210
28.28778,204547
28.29405,207071
28.30030,207468
28.30655,214368
28.31280,221978
28.31907,221568
28.32532,220332
28.33157,231345
28.33783,232060
28.34408,242542
28.35033,240132
28.35660,257441
28.36285,258429
28.36910,267053
28.37537,261241
28.38162,268526
28.38787,282292
28.39413,284698
28.40038,293885
28.40663,301223
28.41290,303082
28.41915,294107
28.42540,300513
28.43167,301001
28.43792,280652
28.44417,290034
28.45043,276472
28.45668,280688
28.46293,283028
28.46920,270739
28.47545,266879
28.48170,259099
28.48797,255947
28.49422,264379
28.50047,248566
28.50673,242507
28.51298,238867
28.51923,238679
28.52548,233791
28.53175,228302
28.53800,231654
28.54425,230491
28.55052,221507
28.55677,225961
28.56302,215956
28.56928,223864
28.57553,210361
28.58178,211812
28.58805,211256
28.59430,211150
28.60055,215334
28.60682,216136
28.61307,207975
28.61932,212416
28.62558,206407
28.63183,214474
28.63808,200997
28.64435,210621
28.65060,203498
28.65685,206642
28.66312,212576
28.66937,203170
28.67562,212498
28.68188,203377
28.68813,199480
28.69438,202857
28.70065,204203
28.70690,199357
28.71315,204425
28.71942,200187
28.72567,199495
28.73192,200106
28.73818,204709
28.74443,200578
28.75068,199255
28.75693,202301
28.76320,203081
28.76945,201857
28.77570,204713
28.78197,196381
28.78822,197786
28.79447,196138
28.80073,204870
28.80698,195958
28.81323,194867
28.81950,196173
28.82575,199439
28.83200,197572
28.83827,201409
28.84452,203450
28.85077,196695
28.85703,203470
28.86328,198618
28.86953,198821
28.87580,196856
28.88205,201261
28.88830,195811
28.89457,196820
28.90082,203050
28.90707,198724
28.91333,193231
28.91958,191716
28.92583,192820
28.93210,198846
28.93835,190838
28.94460,196748
28.95087,188760
28.95712,194551
28.96337,200286
28.96962,196460
28.97588,195201
28.98213,194888
28.98838,196490
28.99465,191912
29.00090,190673
29.00715,191409
29.01342,195144
29.01967,198273
29.02592,195271
29.03218,191705
29.03843,198227
29.04468,193414
29.05095,195877
29.05720,192122
29.06345,199224
29.06972,192822
29.07597,190085
29.08222,198244
29.08848,191604
29.09473,193177
29.10098,189036
29.10725,191596
29.11350,190722
29.11975,197072
29.12602,198703
29.13227,188742
29.13852,188147
29.14478,199920
29.15103,198246
29.15728,189481
29.16355,189010
29.16980,190481
29.17605,187186
29.18230,195285
29.18857,191455
29.19482,188396
29.20107,187817
29.20733,193694
29.21358,208149
29.21983,223785
29.22610,268654
29.23235,324306
29.23860,411503
29.24487,498254
29.25112,612045
29.25737,664686
29.26363,656082
29.26988,591132
29.27613,515188
29.28240,436941
29.28865,370919
29.29490,332641
29.30117,303289
29.30742,287120
29.31367,272246
29.31993,261351
29.32618,246123
29.33243,247951
29.33870,242061
29.34495,237026
29.35120,230095
29.35747,230876
29.36372,231138
29.36997,227561
29.37623,228253
29.38248,221711
29.38873,217469
29.39500,215623
29.40125,215276
29.40750,211813
29.41375,208236
29.42002,211085
29.42627,202025
29.43252,204694
29.43878,201099
29.44503,197230
29.45128,200241
29.45755,197703
29.46380,201566
29.47005,207511
29.47632,196788
29.48257,195382
29.48882,193537
29.49508,201170
29.50133,202393
29.50758,197790
29.51385,192958
29.52010,197543
29.52635,200575
29.53262,202874
29.53887,194638
29.54512,198374
29.55138,196291
29.55763,198134
29.56388,201011
29.57015,199395
29.57640,190616
29.58265,192481
29.58892,197154
29.59517,188444
29.60142,202151
29.60768,189494
29.61393,198035
29.62018,195269
29.62643,187263
29.63270,189351
29.63895,191887
29.64520,197151
29.65147,193483
29.65772,188327
29.66397,189294
29.67023,188183
29.67648,186244
29.68273,196051
29.68900,191337
29.69525,190511
29.70150,186356
29.70777,182641
29.71402,187622
29.72027,189143
29.72653,184919
29.73278,192757
29.73903,185947
29.74530,192958
29.75155,191576
29.75780,182966
29.76407,191219
29.77032,186107
29.77657,187234
29.78283,186466
29.78908,181531
29.79533,190227
29.80160,189882
29.80785,183866
29.81410,188196
29.82037,186270
29.82662,188874
29.83287,193384
29.83913,185460
29.84538,186293
29.85163,183430
29.85788,190492
29.86415,183728
29.87040,186557
29.87665,181846
29.88292,187215
29.88917,184084
29.89542,191582
29.90168,184664
29.90793,184050
29.91418,187325
29.92045,187003
29.92670,190955
29.93295,183706
29.93922,189783
29.94547,192152
29.95172,186380
29.95798,188731
29.96423,187729
29.97048,184778
29.97675,184821
29.98300,190531
29.98925,184299
29.99552,179465
30.00177,181203
30.00802,178942
30.01428,187481
30.02053,185983
30.02678,181531
30.03305,183656
30.03930,184604
30.04555,181382
30.05182,182568
30.05807,191675
30.06432,181881
30.07057,180162
30.07683,180022
30.08308,180490
30.08933,188890
30.09560,180114
30.10185,181982
30.10810,177717
30.11437,178644
30.12062,186153
30.12687,179579
30.13313,178621
30.13938,178148
30.14563,186610
30.15190,184873
30.15815,176891
30.16440,177090
30.17067,184174
30.17692,181896
30.18317,175634
30.18943,184978
30.19568,182431
30.20193,174717
30.20820,183830
30.21445,180170
30.22070,179219
30.22697,183362
30.23322,176892
30.23947,184208
30.24573,185878
30.25198,183766
30.25823,185421
30.26450,177170
30.27075,182061
30.27700,185362
30.28327,179941
30.28952,179209
30.29577,173571
30.30202,175142
30.30828,180309
30.31453,178406
30.32078,177877
30.32705,174204
30.33330,176128
30.33955,178097
30.34582,176639
30.35207,186140
30.35832,174595
30.36458,178378
30.37083,175377
30.37708,173820
30.38335,178450
30.38960,178483
30.39585,176640
30.40212,173752
30.40837,179351
30.41462,180507
30.42088,182720
30.42713,170930
30.43338,179596
30.43965,179965
30.44590,176001
30.45215,173488
30.45842,174315
30.46467,176809
30.47092,173092
30.47718,171521
30.48343,176996
30.48968,182880
30.49595,176347
30.50220,170545
30.50845,174169
30.51470,174512
30.52097,178034
30.52722,174566
30.53347,174836
30.53973,182583
30.54598,172054
30.55223,178437
30.55850,178566
30.56475,173067
30.57100,174644
30.57727,181870
30.58352,170966
30.58977,174338
30.59603,171339
30.60228,173037
30.60853,177889
30.61480,178646
30.62105,176938
30.62730,176585
30.63357,171649
30.63982,170898
30.64607,174307
30.65233,178525
30.65858,171398
30.66483,171146
30.67110,177944
30.67735,175519
30.68360,179590
30.68987,174495
30.69612,179464
30.70237,178247
30.70863,175066
30.71488,174876
30.72113,180617
30.72740,171963
30.73365,176701
30.73990,170516
30.74615,174235
30.75242,172429
30.75867,173210
30.76492,176074
30.77118,174385
30.77743,173027
30.78368,171680
30.78995,169477
30.79620,171282
30.80245,171130
30.80872,170753
30.81497,175115
30.82122,170998
30.82748,178591
30.83373,176000
30.83998,176410
30.84625,168902
30.85250,176825
30.85875,170062
30.86502,170019
30.87127,167745
30.87752,176228
30.88378,170525
30.89003,166456
30.89628,177374
30.90255,171773
30.90880,169922
30.91505,170344
30.92132,168782
30.92757,174047
30.93382,168926
30.94008,170920
30.94633,170498
30.95258,168258
30.95883,170506
30.96510,174988
30.97135,179251
30.97760,178680
30.98387,193804
30.99012,208462
30.99637,230071
31.00263,264934
31.00888,281185
31.01513,299832
31.02140,313463
31.02765,333262
31.03390,317976
31.04017,302816
31.04642,280360
31.05267,267762
31.05893,248803
31.06518,226370
31.07143,210488
31.07770,211616
31.08395,202817
31.09020,194410
31.09647,196179
31.10272,191589
31.10897,187641
31.11523,183658
31.12148,187524
31.12773,184186
31.13400,179824
31.14025,186890
31.14650,182143
31.15277,186374
31.15902,182901
31.16527,184190
31.17152,178361
31.17778,176638
31.18403,177668
31.19028,181562
31.19655,183237
31.20280,175211
31.20905,180012
31.21532,178048
31.22157,173532
31.22782,172534
31.23408,171756
31.24033,178465
31.24658,175076
31.25285,170190
31.25910,168620
31.26535,169875
31.27162,176872
31.27787,172794
31.28412,170495
31.29038,173150
31.29663,170941
31.30288,176077
31.30915,167398
31.31540,171503
31.32165,170816
31.32792,169083
31.33417,178503
31.34042,169555
31.34668,168519
31.35293,176621
31.35918,168879
31.36545,172295
31.37170,176349
31.37795,172548
31.38422,174183
31.39047,174945
31.39672,176079
31.40297,178080
31.40923,179164
31.41548,173847
31.42173,176535
31.42800,173528
31.43425,176885
31.44050,173000
31.44677,175181
31.45302,177750
31.45927,176551
31.46553,171758
31.47178,175437
31.47803,173453
31.48430,169927
31.49055,176897
31.49680,171372
31.50307,175128
31.50932,172191
31.51557,170000
31.52183,171144
31.52808,169111
31.53433,175236
31.54060,176604
31.54685,171418
31.55310,167036
31.55937,177263
31.56562,165884
31.57187,166546
31.57813,164388
31.58438,174125
31.59063,170075
31.59690,167518
31.60315,166187
31.60940,169730
31.61565,170950
31.62192,166162
31.62817,163449
31.63442,170890
31.64068,166208
31.64693,170180
31.65318,162595
31.65945,157962
31.66570,164563
31.67195,166529
31.67822,170626
31.68447,162448
31.69072,166028
31.69698,163493
31.70323,164426
31.70948,165300
31.71575,163135
31.72200,161258
31.72825,168236
31.73452,166138
31.74077,163363
31.74702,163624
31.75328,165647
31.75953,165591
31.76578,162600
31.77205,170999
31.77830,157355
31.78455,163230
31.79082,161921
31.79707,168889
31.80332,162943
31.80958,169804
31.81583,160763
31.82208,163594
31.82833,166876
31.83460,166601
31.84085,161671
31.84710,159454
31.85337,163298
31.85962,162747
31.86587,163533
31.87213,161198
31.87838,161269
31.88463,161249
31.89090,156542
31.89715,161030
31.90340,167789
31.90967,157716
31.91592,159783
31.92217,160056
31.92843,166309
31.93468,167765
31.94093,160074
31.94720,159417
31.95345,159325
31.95970,164291
31.96597,163723
31.97222,165221
31.97847,164207
31.98473,164751
31.99098,156731
31.99723,164237
32.00350,164029
32.00975,161664
32.01600,165263
32.02227,163173
32.02852,161823
32.03477,159964
32.04103,156238
32.04728,160003
32.05353,156871
32.05978,159175
32.06605,159534
32.07230,158402
32.07855,160929
32.08482,162637
32.09107,163221
32.09732,160472
32.10358,159250
32.10983,165891
32.11608,160884
32.12235,158742
32.12860,157308
32.13485,160834
32.14112,163317
32.14737,162038
32.15362,158872
32.15988,157592
32.16613,160195
32.17238,158946
32.17865,163621
32.18490,164128
32.19115,152979
32.19742,157767
32.20367,154620
32.20992,156092
32.21618,159099
32.22243,158127
32.22868,158396
32.23495,159928
32.24120,155579
32.24745,157697
32.25372,159514
32.25997,164309
32.26622,161690
32.27247,161600
32.27873,167109
32.28498,165724
32.29123,160238
32.29750,162895
32.30375,158959
32.31000,161991
32.31627,162536
32.32252,160653
32.32877,163049
32.33503,156416
32.34128,156019
32.34753,157676
32.35380,154792
32.36005,156416
32.36630,157990
32.37257,161453
32.37882,157270
32.38507,160131
32.39133,161963
32.39758,156277
32.40383,160940
32.41010,161583
32.41635,158516
32.42260,158970
32.42887,157274
32.43512,158937
32.44137,154616
32.44763,156257
32.45388,161152
32.46013,155796
32.46640,153721
32.47265,159646
32.47890,159891
32.48517,153501
32.49142,154157
32.49767,158028
32.50392,161423
32.51018,158761
32.51643,150800
32.52268,157697
32.52895,158755
32.53520,156338
32.54145,153042
32.54772,151680
32.55397,158893
32.56022,158191
32.56648,158458
32.57273,154946
32.57898,151821
32.58525,152167
32.59150,153830
32.59775,154553
32.60402,151024
32.61027,153829
32.61652,153142
32.62278,152870
32.62903,155622
32.63528,153042
32.64155,159285
32.64780,153280
32.65405,159017
32.66032,156217
32.66657,157290
32.67282,152170
32.67908,151209
32.68533,153611
32.69158,158944
32.69785,157458
32.70410,157620
32.71035,155311
32.71660,158872
32.72287,153857
32.72912,158628
32.73537,150684
32.74163,152706
32.74788,156212
32.75413,156540
32.76040,151380
32.76665,157320
32.77290,150275
32.77917,154596
32.78542,150142
32.79167,151718
32.79793,151196
32.80418,155784
32.81043,151212
32.81670,157820
32.82295,150934
32.82920,150248
32.83547,152694
32.84172,147710
32.84797,148523
32.85423,151757
32.86048,156458
32.86673,150763
32.87300,153148
32.87925,149722
32.88550,152513
32.89177,147649
32.89802,149607
32.90427,149028
32.91053,152000
32.91678,147691
32.92303,148621
32.92930,156122
32.93555,154778
32.94180,151351
32.94805,149759
32.95432,147301
32.96057,156474
32.96682,157198
32.97308,153450
32.97933,153201
32.98558,150990
32.99185,151477
32.99810,147265
33.00435,152246
33.01062,152313
33.01687,155498
33.02312,152468
33.02938,149713
33.03563,154304
33.04188,145784
33.04815,152143
33.05440,152700
33.06065,148883
33.06692,153631
33.07317,147500
33.07942,152275
33.08568,145412
33.09193,148546
33.09818,146762
33.10445,150840
33.11070,149926
33.11695,149505
33.12322,149484
33.12947,149671
33.13572,145764
33.14198,152534
33.14823,148051
33.15448,156568
33.16073,157080
33.16700,161391
33.17325,154972
33.17950,155200
33.18577,160119
33.19202,161692
33.19827,162821
33.20453,158678
33.21078,163746
33.21703,161625
33.22330,158795
33.22955,157406
33.23580,151078
33.24207,151535
33.24832,152919
33.25457,156009
33.26083,150309
33.26708,153686
33.27333,150944
33.27960,150811
33.28585,153854
33.29210,150084
33.29837,149293
33.30462,157063
33.31087,146619
33.31713,149551
33.32338,150212
33.32963,153557
33.33590,150288
33.34215,156378
33.34840,153314
33.35467,160691
33.36092,173156
33.36717,169047
33.37343,173463
33.37968,181937
33.38593,180704
33.39218,185017
33.39845,181259
33.40470,189926
33.41095,185801
33.41722,183641
33.42347,176078
33.42972,173753
33.43598,167831
33.44223,161893
33.44848,157909
33.45475,164257
33.46100,161725
33.46725,152535
33.47352,149043
33.47977,152101
33.48602,151291
33.49228,152171
33.49853,154832
33.50478,154881
33.51105,156424
33.51730,147546
33.52355,148387
33.52982,152618
33.53607,149535
33.54232,147327
33.54858,146220
33.55483,149542
33.56108,145968
33.56735,154757
33.57360,155979
33.57985,148931
33.58612,148635
33.59237,151205
33.59862,146758
33.60487,152843
33.61113,151545
33.61738,150647
33.62363,149251
33.62990,157083
33.63615,146466
33.64240,145495
33.64867,151764
33.65492,152398
33.66117,144548
33.66743,143570
33.67368,150457
33.67993,146313
33.68620,148196
33.69245,146943
33.69870,147591
33.70497,146195
33.71122,149108
33.71747,147995
33.72373,146965
33.72998,145025
33.73623,143983
33.74250,145298
33.74875,148064
33.75500,144888
33.76127,146715
33.76752,146298
33.77377,147885
33.78003,145040
33.78628,150657
33.79253,148969
33.79880,142856
33.80505,146569
33.81130,144925
33.81755,140747
33.82382,144512
33.83007,141244
33.83632,143838
33.84258,149325
33.84883,140227
33.85508,147787
33.86135,145555
33.86760,144979
33.87385,139206
33.88012,144468
33.88637,143515
33.89262,143262
33.89888,147491
33.90513,144749
33.91138,146022
33.91765,142167
33.92390,141902
33.93015,148071
33.93642,143607
33.94267,140706
33.94892,140939
33.95518,145356
33.96143,142344
33.96768,144671
33.97395,140669
33.98020,141778
33.98645,143607
33.99272,142951
33.99897,145980
34.00522,145630
34.01148,143716
34.01773,145997
34.02398,141320
34.03025,146536
34.03650,143027
34.04275,138422
34.04900,142688
34.05527,142649
34.06152,143677
34.06777,146037
34.07403,145160
34.08028,142196
34.08653,140161
34.09280,140977
34.09905,139992
34.10530,145271
34.11157,143889
34.11782,139931
34.12407,144676
34.13033,145195
34.13658,143658
34.14283,140621
34.14910,140678
34.15535,140202
34.16160,141608
34.16787,142105
34.17412,140457
34.18037,140237
34.18663,141347
34.19288,142421
34.19913,142946
34.20540,143258
34.21165,140549
34.21790,145321
34.22417,138103
34.23042,142458
34.23667,143633
34.24293,142481
34.24918,143522
34.25543,142868
34.26168,143804
34.26795,139843
34.27420,144339
34.28045,138275
34.28672,137988
34.29297,145180
34.29922,139914
34.30548,140498
34.31173,141182
34.31798,137848
34.32425,141997
34.33050,139914
34.33675,137555
34.34302,142228
34.34927,139325
34.35552,139319
34.36178,139574
34.36803,140403
34.37428,141603
34.38055,142361
34.38680,138531
34.39305,140905
34.39932,142030
34.40557,141786
34.41182,139896
34.41808,139041
34.42433,143214
34.43058,140323
34.43685,138885
34.44310,141068
34.44935,138920
34.45562,142238
34.46187,139506
34.46812,140258
34.47437,140435
34.48063,138350
34.48688,142061
34.49313,136224
34.49940,142361
34.50565,140561
34.51190,137063
34.51817,134673
34.52442,137161
34.53067,134921
34.53693,139971
34.54318,140780
34.54943,142248
34.55570,138481
34.56195,139980
34.56820,147384
34.57447,138853
34.58072,137702
34.58697,140837
34.59323,139483
34.59948,143067
34.60573,135869
34.61200,137084
34.61825,140007
34.62450,142246
34.63077,137758
34.63702,138999
34.64327,139235
34.64953,138556
34.65578,137232
34.66203,140659
34.66830,136625
34.67455,137910
34.68080,137725
34.68707,135999
34.69332,135724
34.69957,136802
34.70582,139243
34.71208,135790
34.71833,137186
34.72458,141784
34.73085,135305
34.73710,135118
34.74335,145292
34.74962,141336
34.75587,141924
34.76212,137721
34.76838,137735
34.77463,141971
34.78088,141124
34.78715,134445
34.79340,137436
34.79965,136820
34.80592,132574
34.81217,134433
34.81842,133798
34.82468,139395
34.83093,136317
34.83718,140536
34.84345,138736
34.84970,137747
34.85595,136633
34.86222,136640
34.86847,137452
34.87472,139579
34.88098,137910
34.88723,136188
34.89348,144435
34.89975,134208
34.90600,133521
34.91225,132698
34.91850,138852
34.92477,135712
34.93102,139240
34.93727,139119
34.94353,136445
34.94978,139351
34.95603,136558
34.96230,132406
34.96855,136811
34.97480,137733
34.98107,138318
34.98732,131742
34.99357,132495
34.99983,137929
35.00608,132870
35.01233,134364
35.01860,132706
35.02485,134849
35.03110,135397
35.03737,134257
35.04362,134004
35.04987,137873
35.05613,136987
35.06238,130824
35.06863,134891
35.07490,134159
35.08115,137742
35.08740,133604
35.09367,136152
35.09992,132796
35.10617,132285
35.11243,136339
35.11868,136073
35.12493,131448
35.13120,137885
35.13745,136215
35.14370,134660
35.14995,133748
35.15622,131438
35.16247,134098
35.16872,135171
35.17498,132762
35.18123,138088
35.18748,136838
35.19375,137423
35.20000,133443
35.20625,135131
35.21252,131470
35.21877,131212
35.22502,132013
35.23128,133391
35.23753,135777
35.24378,136182
35.25005,132005
35.25630,131201
35.26255,131241
35.26882,137176
35.27507,138614
35.28132,139323
35.28758,138282
35.29383,133627
35.30008,133601
35.30635,131526
35.31260,133594
35.31885,135435
35.32512,132370
35.33137,131545
35.33762,132826
35.34388,132408
35.35013,132966
35.35638,130234
35.36263,136178
35.36890,134019
35.37515,133362
35.38140,132140
35.38767,130046
35.39392,133336
35.40017,128386
35.40643,138843
35.41268,130280
35.41893,131495
35.42520,136610
35.43145,133638
35.43770,133063
35.44397,130427
35.45022,136804
35.45647,131774
35.46273,131086
35.46898,133351
35.47523,130439
35.48150,134059
35.48775,129036
35.49400,133172
35.50027,134575
35.50652,137867
35.51277,130168
35.51903,131082
35.52528,128512
35.53153,128207
35.53780,132838
35.54405,130604
35.55030,133843
35.55657,131565
35.56282,135200
35.56907,130995
35.57533,131671
35.58158,130983
35.58783,132573
35.59408,135567
35.60035,133872
35.60660,134998
35.61285,135242
35.61912,132751
35.62537,133852
35.63162,135907
35.63788,134516
35.64413,132038
35.65038,131630
35.65665,136006
35.66290,134426
35.66915,134039
35.67542,130233
35.68167,134559
35.68792,132396
35.69418,132586
35.70043,127265
35.70668,130056
35.71295,132741
35.71920,131348
35.72545,128348
35.73172,128260
35.73797,132481
35.74422,131208
35.75048,130213
35.75673,130261
35.76298,130074
35.76925,127834
35.77550,130973
35.78175,130004
35.78802,126749
35.79427,128334
35.80052,128395
35.80677,129331
35.81303,127181
35.81928,129755
35.82553,135402
35.83180,128286
35.83805,130154
35.84430,128029
35.85057,131071
35.85682,131622
35.86307,125957
35.86933,127910
35.87558,125023
35.88183,129442
35.88810,131864
35.89435,126746
35.90060,126799
35.90687,128877
35.91312,131006
35.91937,129372
35.92563,127425
35.93188,129771
35.93813,125979
35.94440,127709
35.95065,128505
35.95690,129239
35.96317,134440
35.96942,130154
35.97567,126708
35.98193,127811
35.98818,130157
35.99443,128374
36.00070,127923
36.00695,130312
36.01320,127237
36.01947,126336
36.02572,128208
36.03197,127261
36.03822,130203
36.04448,130016
36.05073,132194
36.05698,127411
36.06325,128479
36.06950,126828
36.07575,126628
36.08202,128132
36.08827,128596
36.09452,126439
36.10078,127188
36.10703,131327
36.11328,127126
36.11955,125795
36.12580,124782
36.13205,127367
36.13832,125196
36.14457,131248
36.15082,126565
36.15708,126474
36.16333,131504
36.16958,130189
36.17585,131095
36.18210,127642
36.18835,130508
36.19462,128600
36.20087,124449
36.20712,127352
36.21338,127121
36.21963,128211
36.22588,130762
36.23215,127788
36.23840,129968
36.24465,129287
36.25090,133003
36.25717,135760
36.26342,135712
36.26967,143912
36.27593,145212
36.28218,156545
36.28843,156362
36.29470,169348
36.30095,177803
36.30720,182114
36.31347,189571
36.31972,202934
36.32597,207083
36.33223,204330
36.33848,217439
36.34473,226650
36.35100,217370
36.35725,220080
36.36350,208629
36.36977,207974
36.37602,199780
36.38227,192881
36.38853,188135
36.39478,179257
36.40103,170799
36.40730,163770
36.41355,158184
36.41980,151857
36.42607,152419
36.43232,148229
36.43857,149182
36.44483,147817
36.45108,140329
36.45733,137398
36.46358,136782
36.46985,139068
36.47610,138333
36.48235,137322
36.48862,135872
36.49487,136548
36.50112,138488
36.50738,135677
36.51363,131020
36.51988,134619
36.52615,130438
36.53240,134148
36.53865,132236
36.54492,131818
36.55117,132133
36.55742,132557
36.56368,133029
36.56993,134766
36.57618,129711
36.58245,132958
36.58870,131879
36.59495,129658
36.60122,129839
36.60747,129382
36.61372,130332
36.61998,127798
36.62623,138961
36.63248,131744
36.63875,130798
36.64500,138386
36.65125,134443
36.65752,134310
36.66377,135721
36.67002,129748
36.67628,136883
36.68253,131460
36.68878,131336
36.69503,129316
36.70130,130451
36.70755,131638
36.71380,130085
36.72007,129467
36.72632,126309
36.73257,129160
36.73883,131001
36.74508,131250
36.75133,128345
36.75760,132662
36.76385,124681
36.77010,127335
36.77637,129725
36.78262,129243
36.78887,128785
36.79513,125855
36.80138,125544
36.80763,125364
36.81390,128026
36.82015,125955
36.82640,129209
36.83267,126874
36.83892,127606
36.84517,126988
36.85143,124055
36.85768,125188
36.86393,129576
36.87020,127304
36.87645,124518
36.88270,130972
36.88897,126482
36.89522,125297
36.90147,127840
36.90772,124800
36.91398,125218
36.92023,122897
36.92648,121352
36.93275,126874
36.93900,125913
36.94525,123259
36.95152,128392
36.95777,129935
36.96402,124853
36.97028,125847
36.97653,123059
36.98278,125419
36.98905,125936
36.99530,124334
37.00155,124055
37.00782,122078
37.01407,127060
37.02032,125912
37.02658,123247
37.03283,125194
37.03908,122540
37.04535,128832
37.05160,125536
37.05785,123889
37.06412,125589
37.07037,124772
37.07662,123202
37.08288,124931
37.08913,121813
37.09538,129491
37.10165,124072
37.10790,122970
37.11415,125132
37.12040,116995
37.12667,125922
37.13292,124545
37.13917,123770
37.14543,123596
37.15168,122490
37.15793,124961
37.16420,126937
37.17045,126357
37.17670,123749
37.18297,121597
37.18922,125566
37.19547,124466
37.20173,122208
37.20798,122706
37.21423,123340
37.22050,126669
37.22675,121787
37.23300,121523
37.23927,123063
37.24552,123604
37.25177,124003
37.25803,125464
37.26428,125320
37.27053,122184
37.27680,122017
37.28305,126587
37.28930,121003
37.29557,120285
37.30182,123693
37.30807,123116
37.31433,120516
37.32058,126635
37.32683,123651
37.33310,123797
37.33935,119129
37.34560,122749
37.35185,119393
37.35812,122264
37.36437,125107
37.37062,123863
37.37688,120030
37.38313,118946
37.38938,124157
37.39565,119924
37.40190,120549
37.40815,123431
37.41442,123422
37.42067,121630
37.42692,119752
37.43318,122044
37.43943,120130
37.44568,122262
37.45195,126934
37.45820,118496
37.46445,120755
37.47072,118561
37.47697,124532
37.48322,119825
37.48948,120411
