D:\MassHunter\GCMS\1\data\metastasis_lineages_3replicates_3runs_10302020\P_plate1_run1_10302020.D Fri Oct 30 15:04:20 2020
Start of data points
5.99338	249686
5.99965	262094
6.00590	251166
6.01215	255551
6.01842	255298
6.02467	239948
6.03092	220708
6.03718	220964
6.04343	231204
6.04968	235980
6.05595	228200
6.06220	208231
6.06845	201924
6.07472	224551
6.08097	363330
6.08722	673958
6.09348	920917
6.09973	819043
6.10598	512407
6.11225	308924
6.11850	233945
6.12475	217864
6.13102	250732
6.13727	316364
6.14352	428916
6.14978	676377
6.15603	901306
6.16228	840019
6.16855	563042
6.17480	347677
6.18105	257816
6.18732	231853
6.19357	207108
6.19982	189732
6.20607	173049
6.21233	162858
6.21858	170274
6.22483	167119
6.23110	166058
6.23735	154068
6.24360	149127
6.24987	156097
6.25612	156367
6.26237	159429
6.26863	160268
6.27488	164269
6.28113	189741
6.28740	265628
6.29365	416075
6.29990	859721
6.30617	2257958
6.31242	5648731
6.31867	1.027082E+07
6.32493	1.303453E+07
6.33118	9961790
6.33743	3907600
6.34370	895380
6.34995	282023
6.35620	207840
6.36247	195935
6.36872	185058
6.37497	184002
6.38123	204359
6.38748	283707
6.39373	439734
6.40000	587629
6.40625	631124
6.41250	631550
6.41877	741938
6.42502	832258
6.43127	827011
6.43752	1164452
6.44378	2533111
6.45003	5647216
6.45628	1.117601E+07
6.46255	1.857754E+07
6.46880	2.642923E+07
6.47505	3.333099E+07
6.48132	3.877478E+07
6.48757	4.215467E+07
6.49382	4.381939E+07
6.50008	4.402166E+07
6.50633	4.346289E+07
6.51258	4.2168E+07
6.51885	4.233093E+07
6.52510	1.786843E+07
6.53135	1464797
6.53762	968994
6.54387	994554
6.55012	1172648
6.55638	1513707
6.56263	1904999
6.56888	1959304
6.57515	1404033
6.58140	727370
6.58765	407296
6.59392	316968
6.60017	282568
6.60642	257229
6.61268	243699
6.61893	238250
6.62518	239645
6.63145	244773
6.63770	255324
6.64395	250848
6.65020	273138
6.65647	326983
6.66272	361186
6.66897	330412
6.67523	277524
6.68148	239854
6.68773	229085
6.69400	225026
6.70025	228440
6.70650	248180
6.71277	255000
6.71902	263598
6.72527	267827
6.73153	277704
6.73778	271344
6.74403	280520
6.75030	278905
6.75655	281639
6.76280	285008
6.76907	288773
6.77532	288910
6.78157	288211
6.78783	306173
6.79408	333235
6.80033	343321
6.80660	347798
6.81285	347701
6.81910	344772
6.82537	349200
6.83162	369782
6.83787	386930
6.84413	387176
6.85038	369589
6.85663	393633
6.86290	529168
6.86915	788887
6.87540	947819
6.88165	834898
6.88792	605629
6.89417	443560
6.90042	375370
6.90668	352936
6.91293	328597
6.91918	321601
6.92545	318034
6.93170	315534
6.93795	312775
6.94422	297049
6.95047	288047
6.95672	276498
6.96298	273052
6.96923	271717
6.97548	275734
6.98175	262770
6.98800	247489
6.99425	234175
7.00052	230797
7.00677	246047
7.01302	332816
7.01928	698816
7.02553	1883781
7.03178	4278555
7.03805	7126236
7.04430	7509223
7.05055	5037582
7.05682	2088376
7.06307	644878
7.06932	265915
7.07558	188016
7.08183	171566
7.08808	152479
7.09433	148548
7.10060	143889
7.10685	137459
7.11310	128717
7.11937	128586
7.12562	138368
7.13187	189137
7.13813	282267
7.14438	362233
7.15063	327896
7.15690	226575
7.16315	148899
7.16940	121448
7.17567	114806
7.18192	124564
7.18817	166626
7.19443	238694
7.20068	272518
7.20693	226966
7.21320	162904
7.21945	125497
7.22570	123507
7.23197	145513
7.23822	202099
7.24447	340671
7.25073	568010
7.25698	786229
7.26323	765227
7.26950	560731
7.27575	326485
7.28200	199437
7.28827	153078
7.29452	139854
7.30077	136489
7.30703	127419
7.31328	119823
7.31953	110838
7.32578	109356
7.33205	104592
7.33830	104137
7.34455	95269
7.35082	97298
7.35707	99729
7.36332	96798
7.36958	95784
7.37583	105498
7.38208	116856
7.38835	126267
7.39460	127014
7.40085	124773
7.40712	140564
7.41337	182435
7.41962	237585
7.42588	299771
7.43213	352691
7.43838	353038
7.44465	294227
7.45090	232526
7.45715	213903
7.46342	220581
7.46967	209472
7.47592	183007
7.48218	157873
7.48843	177232
7.49468	217292
7.50095	254415
7.50720	246167
7.51345	199325
7.51972	158836
7.52597	138087
7.53222	122780
7.53847	133873
7.54473	247982
7.55098	859596
7.55723	2955900
7.56350	7564391
7.56975	1.385857E+07
7.57600	1.821002E+07
7.58227	1.694888E+07
7.58852	9237699
7.59477	3273934
7.60103	1311697
7.60728	834657
7.61353	626342
7.61980	526558
7.62605	454277
7.63230	352442
7.63857	255012
7.64482	194266
7.65107	161823
7.65733	161798
7.66358	174182
7.66983	243602
7.67610	367345
7.68235	454754
7.68860	398019
7.69487	289359
7.70112	222868
7.70737	225804
7.71363	268600
7.71988	334268
7.72613	343352
7.73240	321635
7.73865	274430
7.74490	220807
7.75115	175727
7.75742	155461
7.76367	143783
7.76992	141354
7.77618	138243
7.78243	139021
7.78868	133661
7.79495	133329
7.80120	128406
7.80745	130128
7.81372	145542
7.81997	205197
7.82622	306449
7.83248	361758
7.83873	337891
7.84498	277059
7.85125	266320
7.85750	312213
7.86375	342579
7.87002	305782
7.87627	245474
7.88252	195358
7.88878	174284
7.89503	180440
7.90128	207441
7.90755	241892
7.91380	260874
7.92005	258494
7.92632	237670
7.93257	220052
7.93882	220367
7.94508	243521
7.95133	304145
7.95758	334041
7.96385	299970
7.97010	267546
7.97635	252195
7.98260	282937
7.98887	397570
7.99512	606981
8.00137	814553
8.00763	1098339
8.01388	1595000
8.02013	1908029
8.02640	1631759
8.03265	1047147
8.03890	623479
8.04517	566608
8.05142	689969
8.05767	796258
8.06393	752456
8.07018	602978
8.07643	460101
8.08270	404268
8.08895	410610
8.09520	446541
8.10147	553683
8.10772	750073
8.11397	1010645
8.12023	1100899
8.12648	856831
8.13273	490136
8.13900	275719
8.14525	188724
8.15150	156945
8.15777	139359
8.16402	137595
8.17027	132245
8.17653	127937
8.18278	121856
8.18903	120817
8.19528	109400
8.20155	102568
8.20780	101956
8.21405	102041
8.22032	118158
8.22657	154514
8.23282	219766
8.23908	260899
8.24533	228454
8.25158	185719
8.25785	154921
8.26410	142597
8.27035	143128
8.27662	148819
8.28287	160880
8.28912	174222
8.29538	172704
8.30163	143466
8.30788	116771
8.31415	96989
8.32040	95556
8.32665	88637
8.33292	91568
8.33917	93434
8.34542	96845
8.35168	94317
8.35793	97315
8.36418	98194
8.37045	93756
8.37670	92292
8.38295	93098
8.38922	103154
8.39547	137021
8.40172	244065
8.40797	399590
8.41423	479073
8.42048	381915
8.42673	245283
8.43300	169846
8.43925	179430
8.44550	242345
8.45177	308575
8.45802	341149
8.46427	296638
8.47053	202520
8.47678	144184
8.48303	119017
8.48930	109340
8.49555	115117
8.50180	118346
8.50807	123948
8.51432	121529
8.52057	108887
8.52683	99267
8.53308	93470
8.53933	91012
8.54560	93146
8.55185	104591
8.55810	136323
8.56437	211968
8.57062	339099
8.57687	514160
8.58313	815903
8.58938	1236787
8.59563	1415573
8.60190	1285975
8.60815	1440705
8.61440	3149273
8.62067	7224774
8.62692	1.177988E+07
8.63317	1.341749E+07
8.63942	9687005
8.64568	3987916
8.65193	1054864
8.65818	327936
8.66445	202606
8.67070	175671
8.67695	158794
8.68322	152601
8.68947	160384
8.69572	171493
8.70198	184316
8.70823	183961
8.71448	191094
8.72075	189591
8.72700	168777
8.73325	158599
8.73952	150341
8.74577	153579
8.75202	156768
8.75828	140765
8.76453	121363
8.77078	105676
8.77705	103493
8.78330	107004
8.78955	102928
8.79582	99746
8.80207	93021
8.80832	95240
8.81458	96508
8.82083	92876
8.82708	112222
8.83335	221610
8.83960	634493
8.84585	1807828
8.85210	4072761
8.85837	6892142
8.86462	8045222
8.87087	6752288
8.87713	4477766
8.88338	3500008
8.88963	3831053
8.89590	4379830
8.90215	4454622
8.90840	3322523
8.91467	1767809
8.92092	879486
8.92717	464850
8.93343	276869
8.93968	195287
8.94593	161630
8.95220	162925
8.95845	172607
8.96470	201811
8.97097	238498
8.97722	270483
8.98347	299166
8.98973	338750
8.99598	434026
9.00223	556663
9.00850	658616
9.01475	660188
9.02100	555193
9.02727	396195
9.03352	333543
9.03977	430143
9.04603	625771
9.05228	713975
9.05853	598411
9.06480	375323
9.07105	229782
9.07730	161021
9.08355	140349
9.08982	143669
9.09607	151895
9.10232	160193
9.10858	151119
9.11483	132641
9.12108	121282
9.12735	114857
9.13360	119249
9.13985	134341
9.14612	146482
9.15237	157420
9.15862	188370
9.16488	232790
9.17113	249014
9.17738	245954
9.18365	265813
9.18990	307406
9.19615	355199
9.20242	337072
9.20867	262925
9.21492	199318
9.22118	159927
9.22743	138363
9.23368	132539
9.23995	149405
9.24620	184900
9.25245	201179
9.25872	195161
9.26497	155396
9.27122	124036
9.27748	102277
9.28373	102039
9.28998	111812
9.29623	138082
9.30250	176563
9.30875	218918
9.31500	263063
9.32127	304402
9.32752	303800
9.33377	298238
9.34003	363981
9.34628	593027
9.35253	872562
9.35880	907496
9.36505	689914
9.37130	418947
9.37757	452038
9.38382	1389007
9.39007	4268283
9.39633	8895654
9.40258	1.265279E+07
9.40883	1.200618E+07
9.41510	7018930
9.42135	2466618
9.42760	750699
9.43387	618000
9.44012	1754275
9.44637	5681581
9.45263	1.395386E+07
9.45888	2.305162E+07
9.46513	2.838273E+07
9.47140	2.629424E+07
9.47765	1.735015E+07
9.48390	6813808
9.49017	1919613
9.49642	694672
9.50267	379217
9.50893	268434
9.51518	226800
9.52143	204182
9.52768	185976
9.53395	170826
9.54020	160591
9.54645	156380
9.55272	157650
9.55897	157771
9.56522	155031
9.57148	168469
9.57773	178724
9.58398	175008
9.59025	163698
9.59650	150460
9.60275	156698
9.60902	167108
9.61527	192805
9.62152	213972
9.62778	202091
9.63403	162724
9.64028	134041
9.64655	119395
9.65280	122675
9.65905	124844
9.66532	124829
9.67157	127986
9.67782	201267
9.68408	681652
9.69033	2404232
9.69658	6147656
9.70285	1.033809E+07
9.70910	1.221505E+07
9.71535	9178573
9.72162	4532533
9.72787	2346923
9.73412	3011051
9.74037	4655004
9.74663	5143812
9.75288	3736755
9.75913	1803213
9.76540	644146
9.77165	271636
9.77790	183170
9.78417	162375
9.79042	141622
9.79667	124722
9.80293	117277
9.80918	113944
9.81543	116438
9.82170	114466
9.82795	118700
9.83420	123296
9.84047	146356
9.84672	191040
9.85297	320219
9.85923	867268
9.86548	2829341
9.87173	6931097
9.87800	1.200519E+07
9.88425	1.505313E+07
9.89050	1.227E+07
9.89677	6344758
9.90302	2196915
9.90927	1285390
9.91553	1438744
9.92178	1324850
9.92803	819540
9.93430	404111
9.94055	211740
9.94680	159985
9.95307	161501
9.95932	190098
9.96557	288152
9.97182	475975
9.97808	668790
9.98433	751541
9.99058	693050
9.99685	561074
10.00310	428412
10.00935	314158
10.01562	237335
10.02187	206916
10.02812	194584
10.03438	166071
10.04063	149351
10.04688	131803
10.05315	124287
10.05940	118848
10.06565	108658
10.07192	101350
10.07817	107492
10.08442	107842
10.09068	120766
10.09693	131700
10.10318	145480
10.10945	169615
10.11570	211327
10.12195	255180
10.12822	254545
10.13447	213365
10.14072	163076
10.14698	136620
10.15323	121165
10.15948	116180
10.16575	113197
10.17200	110217
10.17825	121219
10.18450	135731
10.19077	145759
10.19702	149469
10.20327	128355
10.20953	115624
10.21578	127191
10.22203	191435
10.22830	337936
10.23455	496497
10.24080	558367
10.24707	458482
10.25332	330573
10.25957	238168
10.26583	198572
10.27208	187515
10.27833	168285
10.28460	154788
10.29085	178735
10.29710	230920
10.30337	269660
10.30962	237836
10.31587	181850
10.32213	152601
10.32838	183302
10.33463	293085
10.34090	424415
10.34715	473031
10.35340	369192
10.35967	243649
10.36592	172453
10.37217	144880
10.37843	132725
10.38468	117696
10.39093	105623
10.39718	100088
10.40345	92274
10.40970	90157
10.41595	86909
10.42222	97086
10.42847	105791
10.43472	112246
10.44098	117263
10.44723	114434
10.45348	114799
10.45975	112712
10.46600	118145
10.47225	118520
10.47852	134013
10.48477	168321
10.49102	234295
10.49728	269684
10.50353	243404
10.50978	192975
10.51605	156152
10.52230	126698
10.52855	125050
10.53482	152278
10.54107	200541
10.54732	250874
10.55358	239467
10.55983	193046
10.56608	160993
10.57235	166338
10.57860	191001
10.58485	220267
10.59112	226696
10.59737	206576
10.60362	229565
10.60988	542526
10.61613	1872520
10.62238	5087003
10.62863	9026138
10.63490	1.089217E+07
10.64115	8557278
10.64740	4261967
10.65367	1359648
10.65992	418026
10.66617	202334
10.67243	170062
10.67868	180264
10.68493	182047
10.69120	174705
10.69745	154916
10.70370	130919
10.70997	117893
10.71622	115940
10.72247	120375
10.72873	128524
10.73498	141742
10.74123	143430
10.74750	145925
10.75375	144924
10.76000	140620
10.76627	132648
10.77252	131446
10.77877	130464
10.78503	133022
10.79128	132697
10.79753	135684
10.80380	136929
10.81005	165466
10.81630	243732
10.82257	354318
10.82882	423933
10.83507	350861
10.84132	231380
10.84758	160849
10.85383	130573
10.86008	135606
10.86635	142273
10.87260	143812
10.87885	139659
10.88512	142913
10.89137	137114
10.89762	139847
10.90388	140906
10.91013	145923
10.91638	142941
10.92265	137121
10.92890	137802
10.93515	140226
10.94142	138916
10.94767	125621
10.95392	117270
10.96018	118757
10.96643	191517
10.97268	545689
10.97895	1962490
10.98520	5419815
10.99145	1.095169E+07
10.99772	1.657125E+07
11.00397	1.791812E+07
11.01022	1.293338E+07
11.01648	5566080
11.02273	1478458
11.02898	396437
11.03525	226950
11.04150	218060
11.04775	222197
11.05400	227851
11.06027	263386
11.06652	287615
11.07277	272563
11.07903	214057
11.08528	163327
11.09153	139889
11.09780	141346
11.10405	156528
11.11030	163701
11.11657	161678
11.12282	147944
11.12907	153517
11.13533	172353
11.14158	197195
11.14783	213810
11.15410	232755
11.16035	294034
11.16660	429710
11.17287	564362
11.17912	561726
11.18537	440579
11.19163	270270
11.19788	177055
11.20413	144886
11.21040	147147
11.21665	170812
11.22290	191371
11.22917	191269
11.23542	178714
11.24167	165028
11.24793	161870
11.25418	177760
11.26043	198770
11.26670	204441
11.27295	220692
11.27920	262191
11.28545	323817
11.29172	349404
11.29797	314807
11.30422	238636
11.31048	183255
11.31673	172765
11.32298	217524
11.32925	316189
11.33550	430847
11.34175	448703
11.34802	330110
11.35427	204977
11.36052	138562
11.36678	114573
11.37303	106233
11.37928	112261
11.38555	106018
11.39180	104660
11.39805	112755
11.40432	124453
11.41057	137108
11.41682	147930
11.42308	146630
11.42933	138742
11.43558	145716
11.44185	199070
11.44810	343326
11.45435	541543
11.46062	651188
11.46687	568567
11.47312	371256
11.47938	229475
11.48563	187100
11.49188	181352
11.49813	171587
11.50440	151866
11.51065	138794
11.51690	126525
11.52317	117480
11.52942	115246
11.53567	113482
11.54193	109512
11.54818	108997
11.55443	112350
11.56070	114024
11.56695	107559
11.57320	100750
11.57947	101694
11.58572	102698
11.59197	110996
11.59823	114938
11.60448	119473
11.61073	116588
11.61700	113806
11.62325	112615
11.62950	107553
11.63577	107964
11.64202	106903
11.64827	116787
11.65453	134512
11.66078	148311
11.66703	153883
11.67330	144114
11.67955	128274
11.68580	126198
11.69207	124398
11.69832	136251
11.70457	153536
11.71083	212475
11.71708	327839
11.72333	446618
11.72958	488925
11.73585	387239
11.74210	285607
11.74835	210152
11.75462	175873
11.76087	151747
11.76712	148869
11.77338	166088
11.77963	191341
11.78588	228557
11.79215	242002
11.79840	242722
11.80465	232741
11.81092	222406
11.81717	210032
11.82342	206584
11.82968	235394
11.83593	350748
11.84218	562447
11.84845	769652
11.85470	736851
11.86095	539709
11.86722	360136
11.87347	243411
11.87972	212414
11.88598	227967
11.89223	280129
11.89848	343845
11.90475	367428
11.91100	336664
11.91725	280396
11.92352	232658
11.92977	200510
11.93602	191299
11.94227	220985
11.94853	345316
11.95478	785210
11.96103	1794684
11.96730	3466540
11.97355	4896362
11.97980	4612168
11.98607	2771283
11.99232	1155333
11.99857	488058
12.00483	348141
12.01108	359316
12.01733	362076
12.02360	325735
12.02985	304557
12.03610	291727
12.04237	327612
12.04862	447254
12.05487	642131
12.06113	845113
12.06738	906203
12.07363	789641
12.07990	555407
12.08615	397311
12.09240	341147
12.09867	349422
12.10492	358382
12.11117	330887
12.11743	279775
12.12368	228225
12.12993	203676
12.13620	187888
12.14245	190099
12.14870	180828
12.15497	172445
12.16122	159165
12.16747	152720
12.17372	146898
12.17998	147100
12.18623	151579
12.19248	167922
12.19875	196515
12.20500	244023
12.21125	311339
12.21752	401899
12.22377	437576
12.23002	410196
12.23628	339551
12.24253	293863
12.24878	313263
12.25505	439403
12.26130	730462
12.26755	1247435
12.27382	2000681
12.28007	2569885
12.28632	2575728
12.29258	1860156
12.29883	1036856
12.30508	467279
12.31135	243212
12.31760	167585
12.32385	149496
12.33012	144411
12.33637	146162
12.34262	166530
12.34888	192890
12.35513	220061
12.36138	234115
12.36765	236123
12.37390	229663
12.38015	219330
12.38640	242968
12.39267	292088
12.39892	342209
12.40517	322376
12.41143	252721
12.41768	203927
12.42393	181870
12.43020	191997
12.43645	219181
12.44270	249337
12.44897	257062
12.45522	227721
12.46147	203190
12.46773	196598
12.47398	227142
12.48023	353251
12.48650	669923
12.49275	1272823
12.49900	2002982
12.50527	2350392
12.51152	1993907
12.51777	1151513
12.52403	504563
12.53028	261452
12.53653	206251
12.54280	234985
12.54905	288333
12.55530	323292
12.56157	295043
12.56782	249138
12.57407	261141
12.58033	418297
12.58658	823345
12.59283	1455182
12.59910	2087941
12.60535	2178995
12.61160	2141482
12.61785	2640319
12.62412	3984530
12.63037	5110290
12.63662	5512580
12.64288	5519386
12.64913	6308911
12.65538	8922876
12.66165	1.361809E+07
12.66790	2.023487E+07
12.67415	2.582362E+07
12.68042	2.87855E+07
12.68667	2.742249E+07
12.69292	2.13894E+07
12.69918	8794972
12.70543	2074976
12.71168	699288
12.71795	511179
12.72420	536097
12.73045	608195
12.73672	680522
12.74297	777787
12.74922	809524
12.75548	760534
12.76173	639003
12.76798	498235
12.77425	410875
12.78050	385556
12.78675	441574
12.79302	570275
12.79927	652959
12.80552	594824
12.81178	458471
12.81803	343423
12.82428	289140
12.83053	291942
12.83680	310299
12.84305	301699
12.84930	270347
12.85557	244173
12.86182	223076
12.86807	207299
12.87433	200906
12.88058	220472
12.88683	287396
12.89310	444327
12.89935	684511
12.90560	884781
12.91187	853648
12.91812	594887
12.92437	384975
12.93063	267374
12.93688	211641
12.94313	192982
12.94940	180264
12.95565	181670
12.96190	179515
12.96817	179793
12.97442	172712
12.98067	170151
12.98693	169985
12.99318	181982
12.99943	195318
13.00570	205931
13.01195	219550
13.01820	233671
13.02447	274603
13.03072	363244
13.03697	535240
13.04322	688913
13.04948	683573
13.05573	525239
13.06198	345975
13.06825	291369
13.07450	445082
13.08075	936212
13.08702	1917717
13.09327	2812024
13.09952	2823640
13.10578	2056390
13.11203	1134129
13.11828	610588
13.12455	395262
13.13080	317838
13.13705	277647
13.14332	267536
13.14957	254313
13.15582	236440
13.16208	224584
13.16833	212519
13.17458	209216
13.18085	193968
13.18710	179945
13.19335	173605
13.19962	168581
13.20587	164278
13.21212	166819
13.21838	163871
13.22463	170134
13.23088	180748
13.23715	201025
13.24340	221353
13.24965	228455
13.25592	231872
13.26217	251854
13.26842	295333
13.27467	319561
13.28093	297073
13.28718	276773
13.29343	277081
13.29970	366597
13.30595	591295
13.31220	959338
13.31847	1267326
13.32472	1251719
13.33097	848210
13.33723	480047
13.34348	277992
13.34973	232016
13.35600	229748
13.36225	236114
13.36850	227451
13.37477	207397
13.38102	192617
13.38727	181072
13.39353	170047
13.39978	169292
13.40603	166209
13.41230	166539
13.41855	172196
13.42480	182598
13.43107	201337
13.43732	228820
13.44357	259714
13.44983	273762
13.45608	269160
13.46233	245078
13.46860	215973
13.47485	200859
13.48110	194320
13.48735	203346
13.49362	212396
13.49987	219083
13.50612	211422
13.51238	207140
13.51863	201690
13.52488	210983
13.53115	219794
13.53740	226825
13.54365	224601
13.54992	257698
13.55617	312441
13.56242	390422
13.56868	436730
13.57493	438216
13.58118	404282
13.58745	402847
13.59370	507523
13.59995	776744
13.60622	1171875
13.61247	1578116
13.61872	1606951
13.62498	1254618
13.63123	866097
13.63748	586207
13.64375	427369
13.65000	345965
13.65625	315823
13.66252	317907
13.66877	306583
13.67502	294769
13.68128	289853
13.68753	311965
13.69378	367565
13.70003	438587
13.70630	445603
13.71255	400343
13.71880	330523
13.72507	280042
13.73132	258911
13.73757	250008
13.74383	252591
13.75008	272938
13.75633	343915
13.76260	577232
13.76885	997393
13.77510	1414406
13.78137	1367864
13.78762	959346
13.79387	573204
13.80013	413238
13.80638	498772
13.81263	915512
13.81890	1898572
13.82515	3878640
13.83140	7532519
13.83767	1.265983E+07
13.84392	1.874996E+07
13.85017	2.137439E+07
13.85643	1.731733E+07
13.86268	7405440
13.86893	1883869
13.87520	564836
13.88145	324302
13.88770	315133
13.89397	465179
13.90022	957070
13.90647	2147577
13.91273	4388100
13.91898	7126535
13.92523	8507487
13.93148	7045235
13.93775	3867455
13.94400	1435569
13.95025	464958
13.95652	220634
13.96277	185752
13.96902	180555
13.97528	180380
13.98153	182630
13.98778	193489
13.99405	209761
14.00030	225645
14.00655	228808
14.01282	243445
14.01907	265714
14.02532	265531
14.03158	227266
14.03783	186189
14.04408	151082
14.05035	143063
14.05660	144871
14.06285	157989
14.06912	180043
14.07537	209505
14.08162	225706
14.08788	218056
14.09413	183759
14.10038	159615
14.10665	139349
14.11290	131592
14.11915	127300
14.12542	136996
14.13167	146991
14.13792	152465
14.14417	147581
14.15043	139603
14.15668	138532
14.16293	135940
14.16920	136905
14.17545	134646
14.18170	127265
14.18797	122785
14.19422	121998
14.20047	125016
14.20673	128976
14.21298	142210
14.21923	169843
14.22550	212592
14.23175	271475
14.23800	314282
14.24427	331025
14.25052	299031
14.25677	254437
14.26303	252940
14.26928	372434
14.27553	684733
14.28180	1141361
14.28805	1396617
14.29430	1158004
14.30057	689957
14.30682	382678
14.31307	262465
14.31933	240034
14.32558	283840
14.33183	366915
14.33810	426603
14.34435	398616
14.35060	319093
14.35687	227469
14.36312	187981
14.36937	173574
14.37562	172473
14.38188	180658
14.38813	189762
14.39438	208416
14.40065	239878
14.40690	342514
14.41315	654311
14.41942	1398343
14.42567	2451898
14.43192	3577540
14.43818	3727391
14.44443	2955179
14.45068	2183290
14.45695	1734855
14.46320	1370864
14.46945	1204873
14.47572	1087088
14.48197	1090131
14.48822	1041547
14.49448	922665
14.50073	696425
14.50698	474924
14.51325	319301
14.51950	251716
14.52575	224418
14.53202	218353
14.53827	203933
14.54452	196085
14.55078	188965
14.55703	191061
14.56328	195856
14.56955	210216
14.57580	220648
14.58205	231312
14.58830	223343
14.59457	201720
14.60082	175765
14.60707	172950
14.61333	173084
14.61958	180609
14.62583	185553
14.63210	183778
14.63835	201719
14.64460	260597
14.65087	348450
14.65712	420280
14.66337	435325
14.66963	380914
14.67588	304316
14.68213	253673
14.68840	239129
14.69465	236832
14.70090	246600
14.70717	280566
14.71342	296900
14.71967	319750
14.72593	396127
14.73218	620788
14.73843	1090589
14.74470	1628140
14.75095	1914016
14.75720	1926129
14.76347	2138619
14.76972	2384446
14.77597	2286879
14.78223	1565328
14.78848	795383
14.79473	467183
14.80100	645146
14.80725	1567579
14.81350	3524600
14.81975	5808198
14.82602	6520242
14.83227	4766849
14.83852	2253095
14.84478	809022
14.85103	358303
14.85728	267762
14.86355	295727
14.86980	365425
14.87605	442639
14.88232	437741
14.88857	386435
14.89482	311455
14.90108	253315
14.90733	236994
14.91358	276286
14.91985	423955
14.92610	619349
14.93235	728512
14.93862	708992
14.94487	594685
14.95112	461213
14.95738	374173
14.96363	421748
14.96988	729009
14.97615	1547081
14.98240	2994319
14.98865	4490828
14.99492	4596280
15.00117	3135380
15.00742	1519913
15.01368	656602
15.01993	329726
15.02618	239266
15.03243	213474
15.03870	205102
15.04495	216288
15.05120	238450
15.05747	265038
15.06372	263454
15.06997	249543
15.07623	235025
15.08248	215521
15.08873	211090
15.09500	222676
15.10125	258111
15.10750	281384
15.11377	304936
15.12002	331669
15.12627	385591
15.13253	468873
15.13878	586711
15.14503	671028
15.15130	765665
15.15755	831600
15.16380	907460
15.17007	1264009
15.17632	2036057
15.18257	2865956
15.18883	2917639
15.19508	2135675
15.20133	1215923
15.20760	662088
15.21385	418606
15.22010	315023
15.22637	243872
15.23262	207145
15.23887	200523
15.24513	201668
15.25138	206980
15.25763	215340
15.26388	222888
15.27015	225081
15.27640	205299
15.28265	179268
15.28892	167835
15.29517	163823
15.30142	164781
15.30768	175032
15.31393	192861
15.32018	227045
15.32645	267020
15.33270	307165
15.33895	307810
15.34522	265224
15.35147	216660
15.35772	192269
15.36398	192232
15.37023	216267
15.37648	221336
15.38275	203883
15.38900	183377
15.39525	162466
15.40152	159230
15.40777	151010
15.41402	147751
15.42028	145013
15.42653	163341
15.43278	201118
15.43905	269388
15.44530	363829
15.45155	514013
15.45782	729835
15.46407	857371
15.47032	784652
15.47657	557546
15.48283	347306
15.48908	233138
15.49533	178471
15.50160	167423
15.50785	182708
15.51410	216958
15.52037	303323
15.52662	553842
15.53287	1256053
15.53913	2741256
15.54538	4868315
15.55163	6757390
15.55790	9285342
15.56415	1.267739E+07
15.57040	1.714946E+07
15.57667	1.826126E+07
15.58292	1.25409E+07
15.58917	4598729
15.59543	1460601
15.60168	741255
15.60793	534121
15.61420	458144
15.62045	425867
15.62670	432244
15.63297	407882
15.63922	373729
15.64547	333728
15.65173	302930
15.65798	285262
15.66423	278962
15.67050	290674
15.67675	334859
15.68300	421770
15.68925	498095
15.69552	509417
15.70177	433377
15.70802	349556
15.71428	290131
15.72053	250680
15.72678	219169
15.73305	194549
15.73930	184502
15.74555	184848
15.75182	193271
15.75807	203175
15.76432	212349
15.77058	204529
15.77683	182428
15.78308	157352
15.78935	144770
15.79560	142642
15.80185	144651
15.80812	147505
15.81437	147965
15.82062	150937
15.82688	163895
15.83313	182289
15.83938	238505
15.84565	362676
15.85190	570526
15.85815	729176
15.86442	654152
15.87067	427345
15.87692	261827
15.88318	186815
15.88943	166429
15.89568	162012
15.90195	154596
15.90820	148473
15.91445	145267
15.92070	149782
15.92697	158148
15.93322	167250
15.93947	168380
15.94573	163521
15.95198	156701
15.95823	147497
15.96450	148479
15.97075	157878
15.97700	166937
15.98327	166760
15.98952	153994
15.99577	139485
16.00203	128920
16.00828	135746
16.01453	165566
16.02080	238048
16.02705	348467
16.03330	461396
16.03957	535910
16.04582	548245
16.05207	552098
16.05833	572466
16.06458	540721
16.07083	445037
16.07710	362234
16.08335	363954
16.08960	443097
16.09587	547544
16.10212	613143
16.10837	641550
16.11463	734546
16.12088	1079858
16.12713	1729868
16.13338	2607154
16.13965	2944368
16.14590	2352682
16.15215	1352614
16.15842	677511
16.16467	395113
16.17092	320917
16.17718	296238
16.18343	284504
16.18968	300020
16.19595	373855
16.20220	529131
16.20845	630783
16.21472	559941
16.22097	396669
16.22722	321828
16.23348	432302
16.23973	737501
16.24598	1147203
16.25225	1210613
16.25850	918838
16.26475	537708
16.27102	302078
16.27727	224803
16.28352	201415
16.28978	190256
16.29603	192179
16.30228	252335
16.30855	393286
16.31480	597877
16.32105	692163
16.32732	604011
16.33357	417820
16.33982	278832
16.34607	213129
16.35233	182785
16.35858	173700
16.36483	169931
16.37110	162389
16.37735	157334
16.38360	159255
16.38987	153567
16.39612	163169
16.40237	167298
16.40863	166967
16.41488	167178
16.42113	168096
16.42740	172618
16.43365	182168
16.43990	202379
16.44617	254052
16.45242	302612
16.45867	332256
16.46493	335510
16.47118	295805
16.47743	282145
16.48370	271717
16.48995	239880
16.49620	210900
16.50247	193798
16.50872	185063
16.51497	192966
16.52123	219124
16.52748	260273
16.53373	281843
16.54000	298360
16.54625	287186
16.55250	271873
16.55875	263897
16.56502	252559
16.57127	248031
16.57752	233731
16.58378	217283
16.59003	215657
16.59628	216647
16.60255	221295
16.60880	222305
16.61505	220788
16.62132	218745
16.62757	226453
16.63382	230328
16.64008	245485
16.64633	267900
16.65258	308731
16.65885	345970
16.66510	367237
16.67135	323218
16.67762	299211
16.68387	302696
16.69012	316908
16.69638	309577
16.70263	286972
16.70888	250108
16.71515	208388
16.72140	189662
16.72765	181894
16.73392	168740
16.74017	174276
16.74642	179485
16.75268	183064
16.75893	208765
16.76518	262643
16.77145	421721
16.77770	836169
16.78395	1461950
16.79020	2048710
16.79647	2102150
16.80272	1888362
16.80897	1958894
16.81523	2440325
16.82148	3056747
16.82773	3770936
16.83400	5447146
16.84025	7868385
16.84650	1.019341E+07
16.85277	1.046782E+07
16.85902	8142908
16.86527	5042285
16.87153	2961133
16.87778	2116788
16.88403	2063851
16.89030	2387910
16.89655	2675711
16.90280	2773575
16.90907	2380653
16.91532	1967226
16.92157	1705316
16.92783	1831691
16.93408	2341632
16.94033	2871889
16.94660	3050104
16.95285	3025007
16.95910	3238745
16.96537	3503912
16.97162	3562540
16.97787	2772015
16.98413	1811028
16.99038	1126900
16.99663	735976
17.00288	576460
17.00915	572471
17.01540	754642
17.02165	1390848
17.02792	2813415
17.03417	5541486
17.04042	9827618
17.04668	1.575767E+07
17.05293	2.419737E+07
17.05918	3.52129E+07
17.06545	4.284063E+07
17.07170	4.762458E+07
17.07795	4.802752E+07
17.08422	4.62727E+07
17.09047	4.384644E+07
17.09672	4.17292E+07
17.10298	4.130194E+07
17.10923	4.526807E+07
17.11548	1.830525E+07
17.12175	5249226
17.12800	4734094
17.13425	4593660
17.14052	3821058
17.14677	3098990
17.15302	3536296
17.15928	6613727
17.16553	1.347167E+07
17.17178	2.319359E+07
17.17805	3.209849E+07
17.18430	3.853598E+07
17.19055	3.720066E+07
17.19682	2.493664E+07
17.20307	7691726
17.20932	2757923
17.21558	2127755
17.22183	2277306
17.22808	2567443
17.23433	3869001
17.24060	7435981
17.24685	1.447399E+07
17.25310	2.486353E+07
17.25937	3.415256E+07
17.26562	3.776973E+07
17.27187	3.178647E+07
17.27813	1.813148E+07
17.28438	6819506
17.29063	4979414
17.29690	7570729
17.30315	1.135064E+07
17.30940	1.305207E+07
17.31567	1.02206E+07
17.32192	6092709
17.32817	3255144
17.33443	1745547
17.34068	1134734
17.34693	900982
17.35320	789677
17.35945	706752
17.36570	649354
17.37197	599735
17.37822	561258
17.38447	562228
17.39073	570160
17.39698	583691
17.40323	630901
17.40950	735252
17.41575	873434
17.42200	944568
17.42827	936706
17.43452	848991
17.44077	832337
17.44702	1038356
17.45328	1705043
17.45953	2610840
17.46578	3371484
17.47205	3176902
17.47830	2268868
17.48455	1263388
17.49082	760478
17.49707	584133
17.50332	542438
17.50958	563424
17.51583	661957
17.52208	789605
17.52835	936634
17.53460	895061
17.54085	720322
17.54712	543731
17.55337	454758
17.55962	500696
17.56588	708426
17.57213	1366950
17.57838	3027698
17.58465	5598104
17.59090	8165241
17.59715	8531502
17.60342	6168279
17.60967	3023943
17.61592	1291022
17.62218	740170
17.62843	637500
17.63468	605667
17.64095	572913
17.64720	523205
17.65345	465977
17.65972	449062
17.66597	428569
17.67222	407367
17.67847	380479
17.68473	384157
17.69098	456057
17.69723	764882
17.70350	1623060
17.70975	3341096
17.71600	5223948
17.72227	5508587
17.72852	4211163
17.73477	2346591
17.74103	1057426
17.74728	564546
17.75353	441614
17.75980	435686
17.76605	447525
17.77230	448718
17.77857	489261
17.78482	605993
17.79107	871256
17.79733	1505008
17.80358	2884798
17.80983	5174719
17.81610	7683149
17.82235	8993188
17.82860	8398371
17.83487	5663677
17.84112	3182052
17.84737	1718956
17.85363	1034637
17.85988	799122
17.86613	936467
17.87240	1891406
17.87865	4382820
17.88490	7929541
17.89115	1.000098E+07
17.89742	8710552
17.90367	5393068
17.90992	2425707
17.91618	1180528
17.92243	810622
17.92868	697285
17.93495	598128
17.94120	518014
17.94745	458331
17.95372	415030
17.95997	400194
17.96622	390577
17.97248	393023
17.97873	398134
17.98498	396705
17.99125	415595
17.99750	449227
18.00375	527161
18.01002	671421
18.01627	850623
18.02252	977749
18.02878	940919
18.03503	785068
18.04128	615708
18.04755	492882
18.05380	439757
18.06005	387643
18.06632	357024
18.07257	337980
18.07882	318791
18.08508	317807
18.09133	339283
18.09758	371678
18.10385	452208
18.11010	556664
18.11635	654261
18.12260	705160
18.12887	744451
18.13512	1012948
18.14137	1985966
18.14763	3863568
18.15388	5702636
18.16013	5653684
18.16640	3947459
18.17265	1945980
18.17890	904706
18.18517	535145
18.19142	406279
18.19767	343720
18.20393	319964
18.21018	307116
18.21643	327014
18.22270	366024
18.22895	407755
18.23520	410014
18.24147	370824
18.24772	324919
18.25397	300714
18.26023	289236
18.26648	287981
18.27273	287671
18.27900	302510
18.28525	309939
18.29150	327842
18.29777	358469
18.30402	421262
18.31027	550042
18.31653	672139
18.32278	757099
18.32903	743561
18.33528	624651
18.34155	468690
18.34780	338917
18.35405	275721
18.36032	274756
18.36657	279521
18.37282	295474
18.37908	291224
18.38533	305451
18.39158	332581
18.39785	389187
18.40410	404306
18.41035	389908
18.41662	364405
18.42287	369993
18.42912	376234
18.43538	362106
18.44163	341042
18.44788	323556
18.45415	289662
18.46040	263517
18.46665	234684
18.47292	216537
18.47917	209056
18.48542	204664
18.49168	199243
18.49793	199716
18.50418	203856
18.51045	214842
18.51670	218569
18.52295	214999
18.52922	210703
18.53547	198962
18.54172	195849
18.54797	199813
18.55423	210884
18.56048	231970
18.56673	244102
18.57300	250295
18.57925	244584
18.58550	235330
18.59177	220330
18.59802	230185
18.60427	264880
18.61053	326564
18.61678	411501
18.62303	501722
18.62930	547204
18.63555	567564
18.64180	716021
18.64807	1084896
18.65432	1529988
18.66057	1747742
18.66683	1385370
18.67308	935818
18.67933	643857
18.68560	494764
18.69185	413286
18.69810	373402
18.70437	349720
18.71062	341931
18.71687	355210
18.72313	375993
18.72938	381630
18.73563	360707
18.74190	320259
18.74815	287686
18.75440	272847
18.76067	266864
18.76692	258674
18.77317	252806
18.77942	240237
18.78568	228320
18.79193	217269
18.79818	213556
18.80445	216015
18.81070	221203
18.81695	224717
18.82322	232420
18.82947	234288
18.83572	232787
18.84198	224959
18.84823	223780
18.85448	205831
18.86075	205840
18.86700	249148
18.87325	380107
18.87952	806365
18.88577	2161165
18.89202	6267709
18.89828	1.44659E+07
18.90453	2.699865E+07
18.91078	3.762191E+07
18.91705	4.293306E+07
18.92330	4.067519E+07
18.92955	2.705532E+07
18.93582	9753493
18.94207	2601971
18.94832	770374
18.95458	417342
18.96083	332807
18.96708	290756
18.97335	259661
18.97960	242017
18.98585	227100
18.99210	215683
18.99837	211960
19.00462	218354
19.01087	221074
19.01713	229119
19.02338	232434
19.02963	217793
19.03590	214771
19.04215	210635
19.04840	225825
19.05467	264810
19.06092	305783
19.06717	317307
19.07343	297011
19.07968	267622
19.08593	259742
19.09220	277951
19.09845	297480
19.10470	318894
19.11097	312451
19.11722	292126
19.12347	283865
19.12973	265476
19.13598	265390
19.14223	266370
19.14850	268232
19.15475	253206
19.16100	243957
19.16727	232986
19.17352	210465
19.17977	196009
19.18603	184051
19.19228	185249
19.19853	186300
19.20478	191487
19.21105	193874
19.21730	191777
19.22355	193788
19.22982	185963
19.23607	181412
19.24232	172115
19.24858	161844
19.25483	152128
19.26108	148844
19.26735	146509
19.27360	149467
19.27985	145157
19.28612	149246
19.29237	153827
19.29862	157652
19.30488	164290
19.31113	164143
19.31738	162929
19.32365	154430
19.32990	144686
19.33615	139892
19.34242	145356
19.34867	156601
19.35492	174885
19.36118	186194
19.36743	199988
19.37368	197131
19.37995	190386
19.38620	182919
19.39245	178136
19.39872	179826
19.40497	191295
19.41122	195096
19.41748	205225
19.42373	203226
19.42998	207789
19.43623	198035
19.44250	191538
19.44875	198254
19.45500	207733
19.46127	215768
19.46752	210743
19.47377	195788
19.48003	187109
19.48628	177915
19.49253	172476
19.49880	178149
19.50505	178465
19.51130	189127
19.51757	191894
19.52382	191748
19.53007	201082
19.53633	203249
19.54258	210704
19.54883	229086
19.55510	257125
19.56135	286047
19.56760	303712
19.57387	286454
19.58012	244331
19.58637	208415
19.59263	186843
19.59888	174706
19.60513	173733
19.61140	172093
19.61765	168310
19.62390	166560
19.63017	167985
19.63642	183431
19.64267	219266
19.64892	249684
19.65518	255336
19.66143	241460
19.66768	217380
19.67395	219905
19.68020	245449
19.68645	287128
19.69272	320192
19.69897	324771
19.70522	322531
19.71148	337784
19.71773	360886
19.72398	356555
19.73025	322226
19.73650	296402
19.74275	285616
19.74902	281682
19.75527	275217
19.76152	274850
19.76778	267095
19.77403	283967
19.78028	317993
19.78655	348883
19.79280	338028
19.79905	322816
19.80532	299325
19.81157	307837
19.81782	301792
19.82408	276819
19.83033	239851
19.83658	202762
19.84285	182301
19.84910	175188
19.85535	174029
19.86162	184414
19.86787	208001
19.87412	239106
19.88037	254950
19.88663	261892
19.89288	234066
19.89913	212764
19.90540	211794
19.91165	280363
19.91790	571868
19.92417	1383259
19.93042	2957096
19.93667	4366548
19.94293	4375856
19.94918	3163201
19.95543	1729215
19.96170	846399
19.96795	504756
19.97420	457832
19.98047	545420
19.98672	657243
19.99297	746021
19.99923	734676
20.00548	647414
20.01173	525306
20.01800	411780
20.02425	342736
20.03050	298763
20.03677	272884
20.04302	249915
20.04927	248012
20.05553	274206
20.06178	296982
20.06803	304589
20.07430	284993
20.08055	246995
20.08680	218929
20.09305	203310
20.09932	208904
20.10557	217808
20.11182	233292
20.11808	226870
20.12433	211904
20.13058	196683
20.13685	189987
20.14310	192569
20.14935	194039
20.15562	203502
20.16187	199153
20.16812	198331
20.17438	192964
20.18063	184733
20.18688	181861
20.19315	190566
20.19940	203399
20.20565	208720
20.21192	215130
20.21817	215682
20.22442	214116
20.23068	214249
20.23693	218135
20.24318	217667
20.24945	214397
20.25570	210090
20.26195	211839
20.26822	206881
20.27447	208013
20.28072	200861
20.28698	200802
20.29323	224366
20.29948	320446
20.30575	523421
20.31200	842038
20.31825	1136491
20.32450	1153571
20.33077	892401
20.33702	578566
20.34327	384086
20.34953	304166
20.35578	283289
20.36203	278164
20.36830	262762
20.37455	245297
20.38080	226003
20.38707	217076
20.39332	218080
20.39957	217845
20.40583	214444
20.41208	212407
20.41833	218764
20.42460	235685
20.43085	283487
20.43710	423574
20.44337	753444
20.44962	1323147
20.45587	1765781
20.46213	1763339
20.46838	1316657
20.47463	839942
20.48090	574931
20.48715	550661
20.49340	649258
20.49967	758856
20.50592	732568
20.51217	599452
20.51843	445873
20.52468	355512
20.53093	329822
20.53718	321635
20.54345	309535
20.54970	329965
20.55595	377415
20.56222	440469
20.56847	492840
20.57472	479527
20.58098	413473
20.58723	351936
20.59348	322433
20.59975	325680
20.60600	334473
20.61225	326398
20.61852	305222
20.62477	279470
20.63102	246070
20.63728	220331
20.64353	213166
20.64978	212253
20.65605	236720
20.66230	269082
20.66855	313834
20.67482	314795
20.68107	311308
20.68732	304939
20.69358	291752
20.69983	275871
20.70608	257956
20.71235	260848
20.71860	321004
20.72485	505513
20.73112	782749
20.73737	1068111
20.74362	1128361
20.74988	918463
20.75613	673208
20.76238	525413
20.76863	548931
20.77490	711290
20.78115	940515
20.78740	1037047
20.79367	934510
20.79992	712772
20.80617	514014
20.81243	393146
20.81868	332077
20.82493	285447
20.83120	254813
20.83745	254945
20.84370	271281
20.84997	280194
20.85622	291527
20.86247	275483
20.86873	263775
20.87498	250247
20.88123	241417
20.88750	231428
20.89375	231146
20.90000	236679
20.90627	254135
20.91252	268690
20.91877	286805
20.92503	294844
20.93128	295880
20.93753	313834
20.94380	389142
20.95005	582899
20.95630	926193
20.96257	1118152
20.96882	1055326
20.97507	816517
20.98132	584007
20.98758	451583
20.99383	368885
21.00008	324028
21.00635	329766
21.01260	394425
21.01885	520627
21.02512	634587
21.03137	675179
21.03762	605668
21.04388	492468
21.05013	399924
21.05638	364732
21.06265	341957
21.06890	313217
21.07515	290328
21.08142	290418
21.08767	302784
21.09392	318316
21.10018	324361
21.10643	305223
21.11268	272748
21.11895	249338
21.12520	251708
21.13145	252188
21.13772	250390
21.14397	242937
21.15022	229105
21.15648	224047
21.16273	223571
21.16898	226830
21.17525	230855
21.18150	240777
21.18775	242704
21.19400	238562
21.20027	229717
21.20652	225642
21.21277	216425
21.21903	227164
21.22528	227676
21.23153	229303
21.23780	238238
21.24405	265983
21.25030	318887
21.25657	354441
21.26282	365631
21.26907	335651
21.27533	295994
21.28158	284783
21.28783	314489
21.29410	350767
21.30035	364692
21.30660	345765
21.31287	314513
21.31912	275967
21.32537	255965
21.33163	254355
21.33788	260225
21.34413	256340
21.35040	248783
21.35665	229017
21.36290	223261
21.36917	233087
21.37542	274167
21.38167	319037
21.38793	347828
21.39418	331720
21.40043	294571
21.40670	256265
21.41295	233973
21.41920	219184
21.42545	216127
21.43172	217264
21.43797	215860
21.44422	215343
21.45048	219774
21.45673	239016
21.46298	264214
21.46925	318807
21.47550	382768
21.48175	424942
21.48802	414749
21.49427	382595
21.50052	348132
21.50678	341642
21.51303	357945
21.51928	358431
21.52555	329006
21.53180	273138
21.53805	232870
21.54432	210307
21.55057	200405
21.55682	200235
21.56308	193667
21.56933	195049
21.57558	202288
21.58185	221464
21.58810	239881
21.59435	248841
21.60062	265941
21.60687	295374
21.61312	304388
21.61938	281848
21.62563	250801
21.63188	214234
21.63813	195533
21.64440	178527
21.65065	168468
21.65690	158900
21.66317	154557
21.66942	149307
21.67567	147497
21.68193	147846
21.68818	153836
21.69443	161410
21.70070	163342
21.70695	158884
21.71320	157807
21.71947	152011
21.72572	147719
21.73197	149887
21.73823	147132
21.74448	150230
21.75073	150362
21.75700	152748
21.76325	161952
21.76950	169881
21.77577	176851
21.78202	175671
21.78827	184986
21.79453	205484
21.80078	227960
21.80703	248239
21.81330	247853
21.81955	233460
21.82580	218203
21.83207	207261
21.83832	196114
21.84457	195757
21.85082	204445
21.85708	216850
21.86333	236855
21.86958	250087
21.87585	265999
21.88210	265219
21.88835	258711
21.89462	232050
21.90087	215275
21.90712	226355
21.91338	243208
21.91963	270508
21.92588	284407
21.93215	258181
21.93840	239618
21.94465	212970
21.95092	197044
21.95717	190488
21.96342	183655
21.96968	169322
21.97593	161607
21.98218	157339
21.98845	159879
21.99470	162259
22.00095	167798
22.00722	173606
22.01347	179774
22.01972	178609
22.02598	186106
22.03223	192137
22.03848	209914
22.04475	255683
22.05100	285294
22.05725	305259
22.06352	314299
22.06977	315676
22.07602	312280
22.08227	312356
22.08853	312382
22.09478	307383
22.10103	292259
22.10730	269168
22.11355	246305
22.11980	229158
22.12607	215757
22.13232	210508
22.13857	218324
22.14483	221467
22.15108	216733
22.15733	212443
22.16360	209535
22.16985	199501
22.17610	204606
22.18237	202299
22.18862	204484
22.19487	211085
22.20113	217305
22.20738	220375
22.21363	214305
22.21990	207623
22.22615	194895
22.23240	190043
22.23867	187191
22.24492	189223
22.25117	197825
22.25743	227066
22.26368	271979
22.26993	336616
22.27620	389151
22.28245	387169
22.28870	357071
22.29495	325411
22.30122	301529
22.30747	287269
22.31372	264453
22.31998	254072
22.32623	245112
22.33248	238071
22.33875	241583
22.34500	244740
22.35125	244796
22.35752	260273
22.36377	340910
22.37002	537434
22.37628	892693
22.38253	1150602
22.38878	1215314
22.39505	973734
22.40130	666314
22.40755	460129
22.41382	347545
22.42007	295019
22.42632	268895
22.43258	264761
22.43883	287407
22.44508	314062
22.45135	356966
22.45760	403789
22.46385	477557
22.47012	552835
22.47637	630342
22.48262	639962
22.48888	542229
22.49513	440190
22.50138	357839
22.50763	317877
22.51390	286604
22.52015	273415
22.52640	258260
22.53267	246249
22.53892	244483
22.54517	263405
22.55143	308067
22.55768	378216
22.56393	458885
22.57020	491446
22.57645	489118
22.58270	444307
22.58897	385059
22.59522	327351
22.60147	286325
22.60773	262288
22.61398	251779
22.62023	250145
22.62650	261767
22.63275	278198
22.63900	288076
22.64527	297216
22.65152	311227
22.65777	324140
22.66403	317792
22.67028	300450
22.67653	279968
22.68280	270980
22.68905	275416
22.69530	280550
22.70157	285827
22.70782	281807
22.71407	260620
22.72033	241210
22.72658	231213
22.73283	224467
22.73908	222114
22.74535	224015
22.75160	221897
22.75785	227578
22.76412	229228
22.77037	231662
22.77662	236204
22.78288	251554
22.78913	293113
22.79538	455496
22.80165	1059410
22.80790	2846263
22.81415	6835081
22.82042	1.184167E+07
22.82667	1.588719E+07
22.83292	1.414052E+07
22.83918	9148457
22.84543	4680643
22.85168	2347576
22.85795	1366769
22.86420	925632
22.87045	710685
22.87672	575863
22.88297	494576
22.88922	427458
22.89548	393081
22.90173	362441
22.90798	338933
22.91425	326660
22.92050	311270
22.92675	302525
22.93302	292177
22.93927	290233
22.94552	285374
22.95177	281238
22.95803	274414
22.96428	262856
22.97053	258941
22.97680	252622
22.98305	249804
22.98930	260476
22.99557	265721
23.00182	269555
23.00807	269371
23.01433	263140
23.02058	252555
23.02683	244992
23.03310	234468
23.03935	225787
23.04560	222075
23.05187	219241
23.05812	220107
23.06437	224898
23.07063	248553
23.07688	304282
23.08313	425185
23.08940	568837
23.09565	664256
23.10190	663663
23.10817	575576
23.11442	455756
23.12067	378249
23.12693	319962
23.13318	289731
23.13943	269795
23.14570	252671
23.15195	241791
23.15820	239568
23.16445	225614
23.17072	211186
23.17697	206771
23.18322	202448
23.18948	199437
23.19573	203544
23.20198	205346
23.20825	206326
23.21450	209031
23.22075	206883
23.22702	203623
23.23327	197904
23.23952	190847
23.24578	185842
23.25203	189734
23.25828	188185
23.26455	193648
23.27080	195033
23.27705	190905
23.28332	186793
23.28957	182903
23.29582	181941
23.30208	184315
23.30833	196398
23.31458	234339
23.32085	298045
23.32710	361597
23.33335	392810
23.33962	376694
23.34587	326630
23.35212	278386
23.35838	244640
23.36463	229143
23.37088	213435
23.37715	206012
23.38340	200870
23.38965	199576
23.39590	199832
23.40217	195723
23.40842	199484
23.41467	197566
23.42093	198590
23.42718	202586
23.43343	203227
23.43970	203718
23.44595	206773
23.45220	217829
23.45847	229794
23.46472	249428
23.47097	258476
23.47723	271449
23.48348	279398
23.48973	286865
23.49600	296638
23.50225	328186
23.50850	358908
23.51477	396680
23.52102	469529
23.52727	538822
23.53353	585411
23.53978	567025
23.54603	491843
23.55230	414477
23.55855	354501
23.56480	316689
23.57107	305119
23.57732	321842
23.58357	355127
23.58983	405724
23.59608	449153
23.60233	467245
23.60860	431814
23.61485	391503
23.62110	356153
23.62735	318046
23.63362	298295
23.63987	281969
23.64612	289551
23.65238	297689
23.65863	303280
23.66488	288811
23.67115	273174
23.67740	255695
23.68365	240482
23.68992	245054
23.69617	247652
23.70242	256527
23.70868	270808
23.71493	267096
23.72118	265701
23.72745	293730
23.73370	357483
23.73995	448149
23.74622	514362
23.75247	527449
23.75872	465151
23.76498	392237
23.77123	337113
23.77748	301928
23.78375	290963
23.79000	273921
23.79625	272482
23.80252	271351
23.80877	266903
23.81502	269252
23.82128	279566
23.82753	287634
23.83378	288307
23.84003	287363
23.84630	279949
23.85255	262804
23.85880	258729
23.86507	248639
23.87132	248266
23.87757	248674
23.88383	254637
23.89008	286922
23.89633	344055
23.90260	400351
23.90885	439762
23.91510	426974
23.92137	388812
23.92762	350536
23.93387	323535
23.94013	304772
23.94638	298913
23.95263	299770
23.95890	316498
23.96515	401094
23.97140	629497
23.97767	1204371
23.98392	2187851
23.99017	3776406
23.99643	6617069
24.00268	1.139001E+07
24.00893	1.863572E+07
24.01520	2.283883E+07
24.02145	2.191135E+07
24.02770	1.561151E+07
24.03397	8991542
24.04022	4836465
24.04647	2853798
24.05273	1948064
24.05898	1445283
24.06523	1128782
24.07148	926094
24.07775	841793
24.08400	842595
24.09025	860931
24.09652	833856
24.10277	775744
24.10902	823251
24.11528	1083079
24.12153	1794266
24.12778	2868667
24.13405	3811042
24.14030	4162530
24.14655	3633478
24.15282	2642911
24.15907	1774233
24.16532	1233953
24.17158	932092
24.17783	755630
24.18408	646910
24.19035	585966
24.19660	584333
24.20285	646219
24.20912	805487
24.21537	1286336
24.22162	2660300
24.22788	5842804
24.23413	1.239287E+07
24.24038	2.165939E+07
24.24665	2.917597E+07
24.25290	3.49381E+07
24.25915	3.83315E+07
24.26542	4.08058E+07
24.27167	4.118958E+07
24.27792	4.103541E+07
24.28417	4.036467E+07
24.29043	3.440834E+07
24.29668	1.325297E+07
24.30293	5515178
24.30920	3284840
24.31545	2293860
24.32170	1763719
24.32797	1419414
24.33422	1195257
24.34047	1021640
24.34673	907515
24.35298	808218
24.35923	737669
24.36550	687794
24.37175	663418
24.37800	652559
24.38427	653121
24.39052	639563
24.39677	620030
24.40303	586216
24.40928	537700
24.41553	501280
24.42180	471805
24.42805	459748
24.43430	475515
24.44057	543736
24.44682	677695
24.45307	846749
24.45933	998528
24.46558	1037838
24.47183	930138
24.47810	779244
24.48435	654459
24.49060	559042
24.49685	500297
24.50312	455226
24.50937	417078
24.51562	383419
24.52188	366548
24.52813	354671
24.53438	346996
24.54065	345005
24.54690	357689
24.55315	363229
24.55942	352685
24.56567	342457
24.57192	321679
24.57818	312707
24.58443	298686
24.59068	293451
24.59695	281485
24.60320	276403
24.60945	272889
24.61572	263948
24.62197	256244
24.62822	246680
24.63448	250135
24.64073	251011
24.64698	251747
24.65325	260800
24.65950	260060
24.66575	253914
24.67202	251162
24.67827	256296
24.68452	286586
24.69078	350411
24.69703	433747
24.70328	514206
24.70955	521231
24.71580	464058
24.72205	395262
24.72830	344084
24.73457	306266
24.74082	283147
24.74707	265867
24.75333	256072
24.75958	239481
24.76583	234341
24.77210	235602
24.77835	227997
24.78460	233101
24.79087	252367
24.79712	277293
24.80337	297083
24.80963	296563
24.81588	274594
24.82213	250982
24.82840	230618
24.83465	220586
24.84090	211249
24.84717	204017
24.85342	202949
24.85967	198063
24.86593	202987
24.87218	202590
24.87843	212020
24.88470	220614
24.89095	240252
24.89720	261663
24.90347	285561
24.90972	300518
24.91597	295771
24.92223	269003
24.92848	246663
24.93473	235792
24.94098	233065
24.94725	226869
24.95350	241553
24.95975	278784
24.96602	336034
24.97227	361951
24.97852	358850
24.98478	322303
24.99103	282037
24.99728	251619
25.00355	239869
25.00980	235260
25.01605	226115
25.02232	230070
25.02857	224014
25.03482	237693
25.04108	243767
25.04733	258061
25.05358	265500
25.05985	265194
25.06610	253076
25.07235	241145
25.07862	232079
25.08487	233804
25.09112	229506
25.09738	234048
25.10363	235215
25.10988	233713
25.11615	244795
25.12240	241416
25.12865	236011
25.13492	235746
25.14117	242250
25.14742	240955
25.15367	231828
25.15993	219757
25.16618	208802
25.17243	202783
25.17870	197505
25.18495	197065
25.19120	204952
25.19747	210698
25.20372	215844
25.20997	219804
25.21623	208309
25.22248	202332
25.22873	200569
25.23500	193390
25.24125	188834
25.24750	185646
25.25377	183689
25.26002	176874
25.26627	182872
25.27253	182359
25.27878	179545
25.28503	184434
25.29130	203473
25.29755	226122
25.30380	278999
25.31007	317206
25.31632	322707
25.32257	307721
25.32883	282621
25.33508	262871
25.34133	238634
25.34760	232180
25.35385	220650
25.36010	213474
25.36637	208969
25.37262	207242
25.37887	207820
25.38512	208414
25.39138	210017
25.39763	223203
25.40388	256171
25.41015	331877
25.41640	422964
25.42265	532075
25.42892	580762
25.43517	547480
25.44142	475614
25.44768	411564
25.45393	371352
25.46018	346945
25.46645	328136
25.47270	310982
25.47895	299458
25.48522	287283
25.49147	284064
25.49772	290284
25.50398	316814
25.51023	351630
25.51648	393987
25.52275	403419
25.52900	399594
25.53525	376909
25.54152	370223
25.54777	384513
25.55402	417356
25.56028	445632
25.56653	433599
25.57278	395765
25.57905	355389
25.58530	315479
25.59155	293771
25.59780	284299
25.60407	272093
25.61032	265326
25.61657	255673
25.62283	254532
25.62908	249360
25.63533	243636
25.64160	234725
25.64785	233197
25.65410	228994
25.66037	218549
25.66662	221885
25.67287	212258
25.67913	208371
25.68538	205958
25.69163	210262
25.69790	204108
25.70415	202094
25.71040	198192
25.71667	192892
25.72292	192461
25.72917	187065
25.73543	186754
25.74168	182125
25.74793	185339
25.75420	183001
25.76045	182593
25.76670	181101
25.77297	180560
25.77922	182362
25.78547	183728
25.79173	177952
25.79798	176101
25.80423	174189
25.81048	175957
25.81675	170809
25.82300	170108
25.82925	167478
25.83552	165540
25.84177	163570
25.84802	163325
25.85428	165969
25.86053	170343
25.86678	167019
25.87305	177596
25.87930	183010
25.88555	180203
25.89182	180040
25.89807	171051
25.90432	168886
25.91058	163405
25.91683	165266
25.92308	165309
25.92935	161448
25.93560	158078
25.94185	161152
25.94812	159927
25.95437	156046
25.96062	156367
25.96688	158297
25.97313	156845
25.97938	162911
25.98565	167756
25.99190	176544
25.99815	174051
26.00442	175400
26.01067	173406
26.01692	172646
26.02318	164557
26.02943	160429
26.03568	161442
26.04193	162022
26.04820	168584
26.05445	172211
26.06070	178844
26.06697	183887
26.07322	178138
26.07947	174292
26.08573	175716
26.09198	165231
26.09823	165054
26.10450	159536
26.11075	159864
26.11700	159211
26.12327	160319
26.12952	154067
26.13577	158836
26.14203	152428
26.14828	152338
26.15453	155165
26.16080	148501
26.16705	154690
26.17330	153133
26.17957	152879
26.18582	154466
26.19207	153259
26.19833	152455
26.20458	150613
26.21083	152520
26.21710	147240
26.22335	146367
26.22960	150739
26.23587	147860
26.24212	145830
26.24837	144262
26.25462	147313
26.26088	146925
26.26713	147756
26.27338	148327
26.27965	149127
26.28590	146018
26.29215	150290
26.29842	147118
26.30467	148699
26.31092	152368
26.31718	153345
26.32343	150616
26.32968	152671
26.33595	156937
26.34220	159245
26.34845	158674
26.35472	159445
26.36097	158172
26.36722	164233
26.37348	192497
26.37973	258526
26.38598	375709
26.39225	520666
26.39850	655306
26.40475	638327
26.41102	527450
26.41727	384501
26.42352	293888
26.42978	240108
26.43603	217359
26.44228	202452
26.44855	198788
26.45480	186312
26.46105	180306
26.46732	180658
26.47357	178466
26.47982	185104
26.48607	178710
26.49233	175626
26.49858	175032
26.50483	174644
26.51110	175356
26.51735	176644
26.52360	171709
26.52987	168810
26.53612	178304
26.54237	184343
26.54863	191407
26.55488	189125
26.56113	181525
26.56740	177179
26.57365	174310
26.57990	170732
26.58617	166342
26.59242	164204
26.59867	165096
26.60493	165612
26.61118	169326
26.61743	171224
26.62370	176108
26.62995	178310
26.63620	181255
26.64247	172907
26.64872	176892
26.65497	181948
26.66123	203765
26.66748	274644
26.67373	401701
26.68000	552393
26.68625	626892
26.69250	637896
26.69875	536953
26.70502	452873
26.71127	390135
26.71752	359568
26.72378	342833
26.73003	325337
26.73628	306196
26.74255	285474
26.74880	270243
26.75505	264057
26.76132	265074
26.76757	267819
26.77382	295113
26.78008	319567
26.78633	340784
26.79258	356601
26.79885	339889
26.80510	327317
26.81135	324046
26.81762	307404
26.82387	291613
26.83012	297382
26.83638	330344
26.84263	419708
26.84888	556215
26.85515	666394
26.86140	675260
26.86765	599745
26.87392	489650
26.88017	403092
26.88642	353949
26.89268	328425
26.89893	328200
26.90518	345566
26.91145	389618
26.91770	561628
26.92395	1078737
26.93020	2503785
26.93647	5339550
26.94272	9455533
26.94897	1.383056E+07
26.95523	1.637974E+07
26.96148	1.340669E+07
26.96773	8004749
26.97400	4579602
26.98025	2935950
26.98650	2057445
26.99277	1500051
26.99902	1137133
27.00527	901371
27.01153	768406
27.01778	678900
27.02403	689948
27.03030	824544
27.03655	1014199
27.04280	1164291
27.04907	1144171
27.05532	975480
27.06157	784212
27.06783	660070
27.07408	575619
27.08033	522829
27.08660	472304
27.09285	430987
27.09910	401529
27.10537	371292
27.11162	342651
27.11787	330832
27.12413	314345
27.13038	307541
27.13663	318176
27.14288	346357
27.14915	377675
27.15540	390627
27.16165	391405
27.16792	364016
27.17417	333618
27.18042	313427
27.18668	304817
27.19293	302197
27.19918	293676
27.20545	287575
27.21170	273782
27.21795	266570
27.22422	267588
27.23047	261190
27.23672	262087
27.24298	251476
27.24923	250941
27.25548	250354
27.26175	262254
27.26800	255586
27.27425	256290
27.28052	247616
27.28677	248209
27.29302	242263
27.29928	239968
27.30553	240345
27.31178	233699
27.31805	230524
27.32430	227437
27.33055	223906
27.33682	224242
27.34307	223046
27.34932	217962
27.35558	220243
27.36183	221952
27.36808	222632
27.37433	226792
27.38060	226869
27.38685	229787
27.39310	229525
27.39937	228295
27.40562	224916
27.41187	231747
27.41813	238640
27.42438	247145
27.43063	248430
27.43690	253094
27.44315	235441
27.44940	234400
27.45567	222739
27.46192	224626
27.46817	220648
27.47443	216091
27.48068	214154
27.48693	210132
27.49320	211315
27.49945	217956
27.50570	207973
27.51197	210978
27.51822	209186
27.52447	207102
27.53073	204495
27.53698	200100
27.54323	205437
27.54950	206082
27.55575	209243
27.56200	201949
27.56827	202857
27.57452	200416
27.58077	202080
27.58702	196331
27.59328	200484
27.59953	200527
27.60578	202409
27.61205	198129
27.61830	204819
27.62455	203535
27.63082	202890
27.63707	200513
27.64332	196315
27.64958	199890
27.65583	201088
27.66208	204156
27.66835	198608
27.67460	202393
27.68085	204923
27.68712	207535
27.69337	206651
27.69962	208531
27.70588	209661
27.71213	210401
27.71838	205693
27.72465	209301
27.73090	212439
27.73715	218543
27.74342	220080
27.74967	213821
27.75592	211350
27.76218	213574
27.76843	211388
27.77468	217132
27.78095	218836
27.78720	215270
27.79345	211570
27.79970	211982
27.80597	209026
27.81222	206627
27.81847	203958
27.82473	204504
27.83098	202659
27.83723	199864
27.84350	203502
27.84975	209062
27.85600	233502
27.86227	282458
27.86852	393374
27.87477	530286
27.88103	691752
27.88728	700064
27.89353	636949
27.89980	498182
27.90605	409643
27.91230	353614
27.91857	328328
27.92482	312000
27.93107	301138
27.93733	294283
27.94358	286600
27.94983	286846
27.95610	278826
27.96235	270048
27.96860	272033
27.97487	268597
27.98112	260052
27.98737	261039
27.99363	256947
27.99988	257625
28.00613	264257
28.01240	261049
28.01865	255095
28.02490	249020
28.03115	254566
28.03742	253052
28.04367	241131
28.04992	238700
28.05618	240091
28.06243	235897
28.06868	235278
28.07495	233770
28.08120	234266
28.08745	230547
28.09372	231921
28.09997	233831
28.10622	224766
28.11248	224908
28.11873	228951
28.12498	225619
28.13125	225875
28.13750	228110
28.14375	231164
28.15002	227850
28.15627	229623
28.16252	228270
28.16878	220500
28.17503	222400
28.18128	221929
28.18755	225547
28.19380	222630
28.20005	218998
28.20632	227362
28.21257	222555
28.21882	222379
28.22508	221697
28.23133	221562
28.23758	221335
28.24383	220931
28.25010	219855
28.25635	218099
28.26260	223498
28.26887	217896
28.27512	217485
28.28137	220633
28.28763	215772
28.29388	212065
28.30013	214855
28.30640	215420
28.31265	215249
28.31890	219504
28.32517	219418
28.33142	213512
28.33767	214646
28.34393	215350
28.35018	217301
28.35643	220668
28.36270	217001
28.36895	216675
28.37520	211914
28.38147	213165
28.38772	218342
28.39397	214742
28.40023	218823
28.40648	221386
28.41273	211870
28.41900	210238
28.42525	218494
28.43150	215558
28.43777	221392
28.44402	213704
28.45027	210451
28.45652	212730
28.46278	208322
28.46903	209695
28.47528	214531
28.48155	210654
28.48780	208759
28.49405	212457
28.50032	207038
28.50657	211756
28.51282	210265
28.51908	210611
28.52533	214186
28.53158	216033
28.53785	212045
28.54410	208696
28.55035	210198
28.55662	209543
28.56287	215614
28.56912	205547
28.57538	205849
28.58163	211774
28.58788	210058
28.59415	209783
28.60040	206112
28.60665	208066
28.61292	212349
28.61917	208312
28.62542	206219
28.63168	204096
28.63793	206805
28.64418	206180
28.65045	206358
28.65670	208073
28.66295	212555
28.66922	212639
28.67547	206669
28.68172	209521
28.68797	209749
28.69423	206438
28.70048	204322
28.70673	203138
28.71300	200587
28.71925	202707
28.72550	203402
28.73177	208276
28.73802	208542
28.74427	209018
28.75053	212996
28.75678	214621
28.76303	211083
28.76930	204375
28.77555	204015
28.78180	204973
28.78807	204050
28.79432	205003
28.80057	201424
28.80683	206574
28.81308	205096
28.81933	206604
28.82560	200724
28.83185	208696
28.83810	204813
28.84437	202671
28.85062	204730
28.85687	200953
28.86313	200982
28.86938	200713
28.87563	201680
28.88190	203243
28.88815	199483
28.89440	199159
28.90065	204971
28.90692	201819
28.91317	199287
28.91942	197975
28.92568	201305
28.93193	199795
28.93818	200479
28.94445	201060
28.95070	198622
28.95695	201933
28.96322	196741
28.96947	199837
28.97572	194274
28.98198	195667
28.98823	198346
28.99448	196699
29.00075	197842
29.00700	197398
29.01325	199616
29.01952	202868
29.02577	202449
29.03202	199846
29.03828	207891
29.04453	202390
29.05078	202287
29.05705	199454
29.06330	204315
29.06955	200684
29.07582	200732
29.08207	197162
29.08832	196701
29.09458	199687
29.10083	194995
29.10708	195032
29.11335	196457
29.11960	195685
29.12585	196306
29.13210	203570
29.13837	198806
29.14462	202946
29.15087	195668
29.15713	199965
29.16338	195378
29.16963	195998
29.17590	195918
29.18215	198203
29.18840	199709
29.19467	194997
29.20092	195732
29.20717	198816
29.21343	196397
29.21968	203365
29.22593	209014
29.23220	229965
29.23845	266578
29.24470	316050
29.25097	398472
29.25722	466922
29.26347	521792
29.26973	514510
29.27598	472052
29.28223	415274
29.28850	351281
29.29475	306070
29.30100	276498
29.30727	254699
29.31352	250658
29.31977	238892
29.32603	236083
29.33228	230615
29.33853	228047
29.34478	232085
29.35105	225490
29.35730	224261
29.36355	226033
29.36982	221740
29.37607	222244
29.38232	220880
29.38858	223243
29.39483	217560
29.40108	214193
29.40735	216788
29.41360	211618
29.41985	212717
29.42612	214327
29.43237	216029
29.43862	210796
29.44488	209312
29.45113	212547
29.45738	209615
29.46365	211589
29.46990	207367
29.47615	208401
29.48242	212537
29.48867	206244
29.49492	202656
29.50118	204728
29.50743	209644
29.51368	203522
29.51995	209900
29.52620	205933
29.53245	203869
29.53872	203921
29.54497	202224
29.55122	206168
29.55748	199316
29.56373	202147
29.56998	201179
29.57623	202176
29.58250	206505
29.58875	204270
29.59500	202487
29.60127	198183
29.60752	202362
29.61377	205640
29.62003	197954
29.62628	201259
29.63253	201419
29.63880	200020
29.64505	196850
29.65130	199354
29.65757	202321
29.66382	200087
29.67007	197402
29.67633	198519
29.68258	197136
29.68883	200634
29.69510	193971
29.70135	197009
29.70760	193031
29.71387	196361
29.72012	195736
29.72637	195482
29.73263	192829
29.73888	195048
29.74513	196424
29.75140	193569
29.75765	193660
29.76390	198874
29.77017	194726
29.77642	197072
29.78267	196921
29.78892	192252
29.79518	194100
29.80143	198930
29.80768	192415
29.81395	197125
29.82020	193138
29.82645	191398
29.83272	196700
29.83897	195700
29.84522	192120
29.85148	197372
29.85773	191267
29.86398	195052
29.87025	193645
29.87650	192738
29.88275	190126
29.88902	191790
29.89527	195617
29.90152	193223
29.90778	191656
29.91403	191364
29.92028	192670
29.92655	188841
29.93280	190185
29.93905	190344
29.94532	188088
29.95157	192190
29.95782	189303
29.96408	186050
29.97033	193699
29.97658	186423
29.98285	184338
29.98910	188268
29.99535	192682
30.00162	190838
30.00787	189565
30.01412	186615
30.02037	190808
30.02663	187811
30.03288	189047
30.03913	187345
30.04540	188471
30.05165	193890
30.05790	192914
30.06417	187480
30.07042	191058
30.07667	191618
30.08293	190735
30.08918	192189
30.09543	188264
30.10170	186116
30.10795	187844
30.11420	188005
30.12047	185487
30.12672	189218
30.13297	185591
30.13923	187994
30.14548	187372
30.15173	187276
30.15800	184058
30.16425	190333
30.17050	184284
30.17677	184893
30.18302	186703
30.18927	182067
30.19553	185593
30.20178	187438
30.20803	184627
30.21430	188261
30.22055	188660
30.22680	185728
30.23305	184825
30.23932	184360
30.24557	183909
30.25182	183065
30.25808	186478
30.26433	185365
30.27058	183144
30.27685	185091
30.28310	187644
30.28935	186774
30.29562	181718
30.30187	185836
30.30812	184785
30.31438	181359
30.32063	187522
30.32688	180242
30.33315	183883
30.33940	184648
30.34565	178371
30.35192	182349
30.35817	180399
30.36442	188889
30.37068	182101
30.37693	181654
30.38318	181000
30.38945	181960
30.39570	186517
30.40195	180513
30.40822	183505
30.41447	180497
30.42072	180816
30.42698	183179
30.43323	177498
30.43948	182360
30.44573	179852
30.45200	185947
30.45825	184918
30.46450	179875
30.47077	179692
30.47702	182607
30.48327	181953
30.48953	178413
30.49578	182056
30.50203	181975
30.50830	183374
30.51455	183216
30.52080	178590
30.52707	185988
30.53332	183659
30.53957	181054
30.54583	175820
30.55208	179251
30.55833	178683
30.56460	180363
30.57085	183054
30.57710	179749
30.58337	176432
30.58962	177864
30.59587	177098
30.60213	180589
30.60838	179924
30.61463	183846
30.62090	180322
30.62715	176480
30.63340	177578
30.63967	178839
30.64592	178516
30.65217	178457
30.65843	176227
30.66468	178322
30.67093	180964
30.67718	179029
30.68345	178766
30.68970	179325
30.69595	177930
30.70222	182228
30.70847	190579
30.71472	198931
30.72098	192338
30.72723	202766
30.73348	197518
30.73975	200387
30.74600	199019
30.75225	189531
30.75852	186816
30.76477	186589
30.77102	182515
30.77728	185735
30.78353	176958
30.78978	180158
30.79605	178792
30.80230	178301
30.80855	183466
30.81482	183080
30.82107	176462
30.82732	181888
30.83358	179226
30.83983	178020
30.84608	177427
30.85235	175619
30.85860	175414
30.86485	178037
30.87112	177866
30.87737	181685
30.88362	180940
30.88987	177928
30.89613	174379
30.90238	177140
30.90863	177305
30.91490	178228
30.92115	177986
30.92740	177308
30.93367	173601
30.93992	175772
30.94617	180386
30.95243	182152
30.95868	178273
30.96493	179526
30.97120	179608
30.97745	177607
30.98370	180752
30.98997	186980
30.99622	188588
31.00247	199884
31.00873	222023
31.01498	239916
31.02123	270335
31.02750	304698
31.03375	322258
31.04000	331572
31.04627	328254
31.05252	310316
31.05877	289081
31.06503	269129
31.07128	247453
31.07753	226537
31.08380	213218
31.09005	197547
31.09630	193751
31.10255	196029
31.10882	187683
31.11507	188933
31.12132	186123
31.12758	183460
31.13383	187881
31.14008	189598
31.14635	183878
31.15260	184460
31.15885	188203
31.16512	185959
31.17137	181564
31.17762	185149
31.18388	184720
31.19013	182924
31.19638	185324
31.20265	181954
31.20890	180486
31.21515	180337
31.22142	180065
31.22767	182302
31.23392	183498
31.24018	183871
31.24643	183483
31.25268	178697
31.25895	186661
31.26520	176515
31.27145	178402
31.27772	176599
31.28397	176082
31.29022	178682
31.29648	176884
31.30273	175029
31.30898	179490
31.31525	177045
31.32150	176108
31.32775	176631
31.33400	177849
31.34027	175332
31.34652	179316
31.35277	174300
31.35903	176776
31.36528	174133
31.37153	174835
31.37780	173865
31.38405	178564
31.39030	178462
31.39657	179985
31.40282	176761
31.40907	181513
31.41533	174749
31.42158	176378
31.42783	176775
31.43410	179039
31.44035	177847
31.44660	175475
31.45287	178321
31.45912	178274
31.46537	179537
31.47163	174280
31.47788	175451
31.48413	172746
31.49040	175460
31.49665	169262
31.50290	174725
31.50917	174839
31.51542	173461
31.52167	172369
31.52793	174979
31.53418	176872
31.54043	178474
31.54670	175684
31.55295	171362
31.55920	174551
31.56545	173165
31.57172	172807
31.57797	171997
31.58422	174675
31.59048	172697
31.59673	169645
31.60298	177291
31.60925	169733
31.61550	168769
31.62175	174677
31.62802	169027
31.63427	169786
31.64052	173629
31.64678	171576
31.65303	170623
31.65928	170626
31.66555	170523
31.67180	169034
31.67805	171877
31.68432	170316
31.69057	171572
31.69682	170123
31.70308	169959
31.70933	174922
31.71558	173293
31.72185	168096
31.72810	172430
31.73435	171620
31.74062	168652
31.74687	167710
31.75312	173352
31.75938	169762
31.76563	172096
31.77188	168015
31.77813	165115
31.78440	168134
31.79065	162169
31.79690	171691
31.80317	166238
31.80942	171775
31.81567	166528
31.82193	166891
31.82818	167822
31.83443	167247
31.84070	168817
31.84695	166429
31.85320	169460
31.85947	168653
31.86572	167200
31.87197	165598
31.87823	165577
31.88448	166670
31.89073	167628
31.89700	169027
31.90325	165037
31.90950	162212
31.91577	172237
31.92202	170287
31.92827	163264
31.93453	167753
31.94078	163515
31.94703	163821
31.95330	166204
31.95955	167789
31.96580	168189
31.97207	166712
31.97832	167035
31.98457	166028
31.99083	165931
31.99708	170283
32.00333	166201
32.00958	166061
32.01585	165315
32.02210	165195
32.02835	165814
32.03462	169176
32.04087	167825
32.04712	165284
32.05338	165503
32.05963	165494
32.06588	161880
32.07215	163062
32.07840	166359
32.08465	169037
32.09092	166702
32.09717	169986
32.10342	161806
32.10968	166926
32.11593	164444
32.12218	164584
32.12845	164739
32.13470	165638
32.14095	164041
32.14722	165665
32.15347	168528
32.15972	161907
32.16598	167949
32.17223	163240
32.17848	164630
32.18475	160096
32.19100	162938
32.19725	164814
32.20352	166730
32.20977	166792
32.21602	162703
32.22227	160701
32.22853	160728
32.23478	160720
32.24103	169704
32.24730	162891
32.25355	162263
32.25980	163459
32.26607	161501
32.27232	162478
32.27857	168438
32.28483	162166
32.29108	166142
32.29733	161987
32.30360	164380
32.30985	163428
32.31610	166705
32.32237	168342
32.32862	164402
32.33487	165578
32.34113	163813
32.34738	160197
32.35363	162956
32.35990	159397
32.36615	169571
32.37240	165312
32.37867	165340
32.38492	167692
32.39117	163177
32.39743	162815
32.40368	160877
32.40993	160084
32.41620	164108
32.42245	159533
32.42870	160999
32.43495	162707
32.44122	165733
32.44747	164183
32.45372	161338
32.45998	164039
32.46623	163215
32.47248	164622
32.47875	168433
32.48500	159973
32.49125	163703
32.49752	161478
32.50377	161444
32.51002	161658
32.51628	159103
32.52253	162772
32.52878	158839
32.53505	158871
32.54130	163138
32.54755	161929
32.55382	159334
32.56007	156952
32.56632	158707
32.57258	156617
32.57883	159191
32.58508	161162
32.59135	157889
32.59760	158056
32.60385	157589
32.61012	162008
32.61637	160522
32.62262	156725
32.62888	157044
32.63513	162955
32.64138	158948
32.64765	160063
32.65390	162395
32.66015	165288
32.66640	158424
32.67267	159635
32.67892	157357
32.68517	162799
32.69143	161561
32.69768	157882
32.70393	159984
32.71020	160716
32.71645	162063
32.72270	159054
32.72897	158585
32.73522	154923
32.74147	156623
32.74773	156307
32.75398	158471
32.76023	157029
32.76650	161916
32.77275	155653
32.77900	160660
32.78527	158791
32.79152	159081
32.79777	156855
32.80403	158818
32.81028	155499
32.81653	162215
32.82280	160029
32.82905	157704
32.83530	159414
32.84157	154712
32.84782	158588
32.85407	156907
32.86033	154586
32.86658	152918
32.87283	156153
32.87908	156999
32.88535	158595
32.89160	159159
32.89785	154708
32.90412	158455
32.91037	156045
32.91662	157459
32.92288	154010
32.92913	159507
32.93538	155730
32.94165	153615
32.94790	154099
32.95415	154803
32.96042	161088
32.96667	156611
32.97292	157895
32.97918	159303
32.98543	160336
32.99168	155133
32.99795	158734
33.00420	156910
33.01045	158510
33.01672	154509
33.02297	154276
33.02922	160828
33.03548	159252
33.04173	157798
33.04798	157335
33.05425	156294
33.06050	155441
33.06675	153653
33.07302	154824
33.07927	154024
33.08552	153915
33.09177	156471
33.09803	153984
33.10428	152844
33.11053	154674
33.11680	156410
33.12305	153369
33.12930	153884
33.13557	154980
33.14182	156378
33.14807	156953
33.15433	156143
33.16058	157820
33.16683	156639
33.17310	158761
33.17935	158365
33.18560	164008
33.19187	166189
33.19812	165920
33.20437	169865
33.21063	168472
33.21688	164265
33.22313	168551
33.22940	162628
33.23565	163626
33.24190	163006
33.24817	161876
33.25442	161405
33.26067	160000
33.26693	160511
33.27318	158411
33.27943	160687
33.28570	155944
33.29195	153403
33.29820	156417
33.30447	156994
33.31072	157037
33.31697	158305
33.32322	155916
33.32948	150650
33.33573	153513
33.34198	152910
33.34825	157563
33.35450	156131
33.36075	158291
33.36702	161628
33.37327	161184
33.37952	167211
33.38578	172241
33.39203	176162
33.39828	186267
33.40455	191960
33.41080	197864
33.41705	200750
33.42332	203290
33.42957	202869
33.43582	202749
33.44208	194299
33.44833	188410
33.45458	181461
33.46085	176936
33.46710	169526
33.47335	168030
33.47962	164984
33.48587	161151
33.49212	163878
33.49838	161331
33.50463	152468
33.51088	159696
33.51715	159168
33.52340	154144
33.52965	156659
33.53590	156687
33.54217	152418
33.54842	153521
33.55467	153772
33.56093	153763
33.56718	153861
33.57343	155924
33.57970	154621
33.58595	158440
33.59220	154716
33.59847	158224
33.60472	159973
33.61097	153517
33.61723	155359
33.62348	155018
33.62973	151715
33.63600	157592
33.64225	151868
33.64850	153185
33.65477	152719
33.66102	155784
33.66727	155800
33.67353	153250
33.67978	151300
33.68603	157510
33.69230	152902
33.69855	156670
33.70480	151714
33.71107	155901
33.71732	152169
33.72357	152972
33.72983	154231
33.73608	152760
33.74233	153797
33.74860	153670
33.75485	151412
33.76110	152309
33.76735	150885
33.77362	149239
33.77987	151505
33.78612	152386
33.79238	150505
33.79863	148160
33.80488	150453
33.81115	155148
33.81740	152244
33.82365	153235
33.82992	148770
33.83617	151186
33.84242	149425
33.84868	151923
33.85493	151254
33.86118	153166
33.86745	155407
33.87370	149150
33.87995	151608
33.88622	146786
33.89247	146928
33.89872	152438
33.90498	152021
33.91123	149744
33.91748	147331
33.92375	153316
33.93000	148584
33.93625	152697
33.94252	152190
33.94877	149663
33.95502	150710
33.96128	148112
33.96753	151664
33.97378	148958
33.98003	149330
33.98630	149447
33.99255	144436
33.99880	153145
34.00507	148860
34.01132	149072
34.01757	148384
34.02383	147309
34.03008	147986
34.03633	150521
34.04260	148485
34.04885	148668
34.05510	149675
34.06137	147840
34.06762	144165
34.07387	150265
34.08013	149982
34.08638	151383
34.09263	148702
34.09890	146717
34.10515	149500
34.11140	148826
34.11767	148338
34.12392	151449
34.13017	147248
34.13643	150945
34.14268	147754
34.14893	148250
34.15520	145877
34.16145	150689
34.16770	148130
34.17397	147946
34.18022	148422
34.18647	144690
34.19273	148812
34.19898	146783
34.20523	151104
34.21148	148398
34.21775	149946
34.22400	151490
34.23025	140798
34.23652	146113
34.24277	146133
34.24902	150534
34.25528	146781
34.26153	144753
34.26778	146139
34.27405	147361
34.28030	146541
34.28655	144981
34.29282	144535
34.29907	148478
34.30532	149886
34.31158	151268
34.31783	147745
34.32408	148666
34.33035	144265
34.33660	150044
34.34285	147044
34.34912	149924
34.35537	147898
34.36162	150524
34.36788	147271
34.37413	146800
34.38038	146197
34.38665	147838
34.39290	145387
34.39915	149100
34.40542	143674
34.41167	147856
34.41792	142018
34.42417	144796
34.43043	145120
34.43668	145809
34.44293	144112
34.44920	144632
34.45545	144173
34.46170	144397
34.46797	142914
34.47422	146100
34.48047	146444
34.48673	145087
34.49298	145130
34.49923	144448
34.50550	144828
34.51175	143200
34.51800	146433
34.52427	145022
34.53052	145860
34.53677	145087
34.54303	145365
34.54928	147233
34.55553	144893
34.56180	142664
34.56805	143443
34.57430	143117
34.58057	145983
34.58682	143425
34.59307	143303
34.59933	142560
34.60558	144457
34.61183	141743
34.61810	145958
34.62435	144794
34.63060	141673
34.63687	147620
34.64312	146621
34.64937	146026
34.65562	141994
34.66188	144875
34.66813	144505
34.67438	143161
34.68065	143962
34.68690	146240
34.69315	147828
34.69942	144202
34.70567	146136
34.71192	142694
34.71818	144065
34.72443	142922
34.73068	141308
34.73695	148445
34.74320	140575
34.74945	141734
34.75572	145793
34.76197	142657
34.76822	143677
34.77448	140912
34.78073	142821
34.78698	141714
34.79325	141745
34.79950	141555
34.80575	142335
34.81202	145165
34.81827	144332
34.82452	141402
34.83078	146380
34.83703	140421
34.84328	143359
34.84955	141706
34.85580	141948
34.86205	143170
34.86830	141172
34.87457	141451
34.88082	142559
34.88707	145668
34.89333	142371
34.89958	144025
34.90583	142716
34.91210	140570
34.91835	141632
34.92460	142638
34.93087	140570
34.93712	142922
34.94337	142029
34.94963	144721
34.95588	143380
34.96213	141320
34.96840	141540
34.97465	141688
34.98090	143468
34.98717	139282
34.99342	140421
34.99967	140964
35.00593	144727
35.01218	141472
35.01843	142469
35.02470	139595
35.03095	140262
35.03720	143018
35.04347	141170
35.04972	140829
35.05597	143799
35.06223	139960
35.06848	144092
35.07473	142109
35.08098	140021
35.08725	141168
35.09350	139766
35.09975	142898
35.10602	140489
35.11227	145342
35.11852	137955
35.12478	139217
35.13103	142948
35.13728	138593
35.14355	139803
35.14980	138853
35.15605	142225
35.16232	142846
35.16857	145003
35.17482	139602
35.18108	140493
35.18733	144694
35.19358	140183
35.19985	138682
35.20610	144412
35.21235	140328
35.21862	139909
35.22487	140569
35.23112	140781
35.23738	142187
35.24363	140562
35.24988	140141
35.25615	142080
35.26240	138256
35.26865	139413
35.27492	141532
35.28117	138344
35.28742	140113
35.29368	140759
35.29993	136355
35.30618	143083
35.31243	143491
35.31870	136691
35.32495	138743
35.33120	138710
35.33747	140760
35.34372	139821
35.34997	139253
35.35623	137303
35.36248	139931
35.36873	137012
35.37500	143515
35.38125	138528
35.38750	136861
35.39377	142748
35.40002	142159
35.40627	138956
35.41253	136725
35.41878	141190
35.42503	138259
35.43130	139516
35.43755	136198
35.44380	136454
35.45007	140374
35.45632	141660
35.46257	135954
35.46883	141115
35.47508	135970
35.48133	139924
35.48760	144436
35.49385	138223
35.50010	137738
35.50637	142458
35.51262	144181
35.51887	141009
35.52512	140973
35.53138	137535
35.53763	140937
35.54388	138254
35.55015	141455
35.55640	136628
35.56265	141124
35.56892	138879
35.57517	143792
35.58142	136467
35.58768	138254
35.59393	140168
35.60018	138721
35.60645	141154
35.61270	137097
35.61895	141723
35.62522	138745
35.63147	139426
35.63772	137941
35.64398	139941
35.65023	139199
35.65648	139300
35.66275	140701
35.66900	139784
35.67525	139240
35.68152	139968
35.68777	137014
35.69402	137896
35.70028	137501
35.70653	137980
35.71278	137153
35.71905	138646
35.72530	137306
35.73155	136513
35.73780	135689
35.74407	140241
35.75032	135502
35.75657	137555
35.76283	138203
35.76908	139964
35.77533	139201
35.78160	137390
35.78785	138006
35.79410	135343
35.80037	139922
35.80662	134714
35.81287	135768
35.81913	141108
35.82538	135068
35.83163	141938
35.83790	137282
35.84415	134036
35.85040	135190
35.85667	141936
35.86292	138825
35.86917	135620
35.87543	135378
35.88168	138259
35.88793	137058
35.89420	133856
35.90045	138978
35.90670	133806
35.91297	133787
35.91922	139060
35.92547	134049
35.93173	137717
35.93798	139817
35.94423	136707
35.95050	135175
35.95675	135086
35.96300	135161
35.96925	140087
35.97552	132418
35.98177	136624
35.98802	137882
35.99428	136998
36.00053	134572
36.00678	136320
36.01305	136716
36.01930	134640
36.02555	135160
36.03182	140404
36.03807	135481
36.04432	134845
36.05058	134507
36.05683	134185
36.06308	132835
36.06935	135369
36.07560	133487
36.08185	132665
36.08812	138875
36.09437	136225
36.10062	137913
36.10688	134733
36.11313	134780
36.11938	135554
36.12565	135795
36.13190	136322
36.13815	132410
36.14442	137852
36.15067	133394
36.15692	134533
36.16318	136021
36.16943	133327
36.17568	136925
36.18193	132436
36.18820	134564
36.19445	134832
36.20070	136663
36.20697	134480
36.21322	135470
36.21947	135921
36.22573	131383
36.23198	131028
36.23823	132881
36.24450	137386
36.25075	136535
36.25700	136677
36.26327	134494
36.26952	139091
36.27577	140630
36.28203	140287
36.28828	143411
36.29453	144593
36.30080	148320
36.30705	155032
36.31330	165532
36.31957	173815
36.32582	182347
36.33207	189599
36.33833	205446
36.34458	213747
36.35083	225244
36.35710	235206
36.36335	245688
36.36960	241302
36.37587	244442
36.38212	250840
36.38837	262829
36.39463	252551
36.40088	242881
36.40713	240261
36.41338	232406
36.41965	215655
36.42590	201473
36.43215	192501
36.43842	187097
36.44467	172694
36.45092	170516
36.45718	163195
36.46343	156623
36.46968	154026
36.47595	153323
36.48220	152420
36.48845	146872
36.49472	145733
36.50097	144729
36.50722	144526
36.51348	143185
36.51973	141980
36.52598	141777
36.53225	142231
36.53850	142869
36.54475	144930
36.55102	145172
36.55727	142194
36.56352	140202
36.56978	141429
36.57603	143698
36.58228	142749
36.58855	139666
36.59480	139737
36.60105	139762
36.60732	139620
36.61357	141932
36.61982	143085
36.62607	141713
36.63233	143213
36.63858	141127
36.64483	142125
36.65110	145022
36.65735	145187
36.66360	146513
36.66987	149902
36.67612	148269
36.68237	150004
36.68863	148232
36.69488	144457
36.70113	147657
36.70740	146782
36.71365	145072
36.71990	141965
36.72617	144953
36.73242	146428
36.73867	146888
36.74493	139125
36.75118	141679
36.75743	142269
36.76370	140657
36.76995	137701
36.77620	134941
36.78247	137747
36.78872	137960
36.79497	135771
36.80123	141045
36.80748	135909
36.81373	135593
36.82000	135876
36.82625	137447
36.83250	138516
36.83877	139242
36.84502	136750
36.85127	134021
36.85752	138631
36.86378	136003
36.87003	139543
36.87628	135599
36.88255	133262
36.88880	135945
36.89505	135798
36.90132	134397
36.90757	138373
36.91382	132166
36.92008	135270
36.92633	132754
36.93258	130092
36.93885	135571
36.94510	134004
36.95135	131735
36.95762	135142
36.96387	133706
36.97012	131735
36.97638	134345
36.98263	136094
36.98888	133792
36.99515	133044
37.00140	132009
37.00765	138516
37.01392	136149
37.02017	135406
37.02642	133433
37.03268	134900
37.03893	134694
37.04518	133138
37.05145	132888
37.05770	135389
37.06395	134347
37.07020	132890
37.07647	133936
37.08272	135563
37.08897	133580
37.09523	131763
37.10148	132998
37.10773	138812
37.11400	131906
37.12025	134981
37.12650	133398
37.13277	134321
37.13902	135759
37.14527	133734
37.15153	133587
37.15778	130229
37.16403	133800
37.17030	131886
37.17655	130160
37.18280	131388
37.18907	133535
37.19532	131821
37.20157	135405
37.20783	129837
37.21408	129239
37.22033	131666
37.22660	130333
37.23285	130391
37.23910	129164
37.24537	135628
37.25162	134896
37.25787	131499
37.26413	129673
37.27038	132266
37.27663	129722
37.28290	129303
37.28915	131664
37.29540	134654
37.30165	133151
37.30792	132096
37.31417	129466
37.32042	131002
37.32668	129714
37.33293	130015
37.33918	129057
37.34545	133155
37.35170	129650
37.35795	132321
37.36422	131270
37.37047	131718
37.37672	130748
37.38298	129884
37.38923	129741
37.39548	134004
37.40175	133260
37.40800	131457
37.41425	132736
37.42052	132491
37.42677	128849
37.43302	128592
37.43928	127830
37.44553	128777
37.45178	129876
37.45805	128902
37.46430	129048
37.47055	130931
37.47682	128442
37.48307	129095
37.48932	127705
