D:\MassHunter\GCMS\1\data\metastasis_lineages_3replicates_3runs_10302020\P_plate3_run1_10302020.D Fri Oct 30 20:42:41 2020
Start of data points
5.99347,180789
5.99973,190936
6.00598,193500
6.01223,186289
6.01850,178051
6.02475,178439
6.03100,176194
6.03727,173684
6.04352,176684
6.04977,183300
6.05603,197834
6.06228,224410
6.06853,214249
6.07478,186441
6.08105,180338
6.08730,209116
6.09355,399023
6.09982,744822
6.10607,967553
6.11232,794591
6.11858,488314
6.12483,279485
6.13108,211939
6.13735,205018
6.14360,231477
6.14985,350437
6.15612,578521
6.16237,842044
6.16862,929519
6.17488,703143
6.18113,421252
6.18738,268831
6.19365,199245
6.19990,178236
6.20615,177192
6.21242,168198
6.21867,155162
6.22492,143454
6.23118,141024
6.23743,144914
6.24368,134153
6.24995,127286
6.25620,124795
6.26245,128269
6.26872,135917
6.27497,137778
6.28122,141744
6.28748,135546
6.29373,164695
6.29998,262257
6.30623,476415
6.31250,897433
6.31875,1989855
6.32500,4836215
6.33127,9643676
6.33752,1.349579E+07
6.34377,1.272764E+07
6.35003,6209157
6.35628,1490414
6.36253,351370
6.36880,200621
6.37505,183528
6.38130,174170
6.38757,171469
6.39382,193748
6.40007,271136
6.40633,422176
6.41258,524436
6.41883,544315
6.42510,643083
6.43135,756643
6.43760,706508
6.44387,667509
6.45012,1295664
6.45637,3509050
6.46263,8171884
6.46888,1.50979E+07
6.47513,2.238135E+07
6.48140,2.86274E+07
6.48765,3.433138E+07
6.49390,3.896879E+07
6.50017,4.257197E+07
6.50642,4.391518E+07
6.51267,4.45169E+07
6.51892,4.431615E+07
6.52518,4.370226E+07
6.53143,4.32342E+07
6.53768,3.503267E+07
6.54395,2678111
6.55020,838222
6.55645,855876
6.56272,962584
6.56897,1212023
6.57522,1563812
6.58148,1669430
6.58773,1288109
6.59398,671390
6.60025,344596
6.60650,253810
6.61275,225167
6.61902,217850
6.62527,214022
6.63152,223644
6.63778,227349
6.64403,222828
6.65028,212463
6.65655,219784
6.66280,261151
6.66905,338484
6.67532,361119
6.68157,309502
6.68782,245420
6.69408,218201
6.70033,215355
6.70658,218911
6.71285,225412
6.71910,243472
6.72535,251687
6.73162,248792
6.73787,257703
6.74412,264410
6.75037,274063
6.75663,271298
6.76288,279471
6.76913,275330
6.77540,280948
6.78165,281820
6.78790,294550
6.79417,308141
6.80042,342318
6.80667,372498
6.81293,378890
6.81918,364715
6.82543,348303
6.83170,352331
6.83795,369136
6.84420,401224
6.85047,414437
6.85672,400663
6.86297,377002
6.86923,407272
6.87548,507022
6.88173,683056
6.88800,740999
6.89425,647210
6.90050,483775
6.90677,396595
6.91302,355424
6.91927,339319
6.92553,321572
6.93178,324659
6.93803,315319
6.94430,319395
6.95055,306911
6.95680,284783
6.96305,276011
6.96932,273934
6.97557,268900
6.98182,273848
6.98808,265829
6.99433,247131
7.00058,231040
7.00685,233448
7.01310,253878
7.01935,332610
7.02562,629239
7.03187,1554716
7.03812,3711624
7.04438,6556992
7.05063,7983403
7.05688,6138656
7.06315,2885584
7.06940,890775
7.07565,293669
7.08192,173698
7.08817,149460
7.09442,141147
7.10068,135255
7.10693,134509
7.11318,124452
7.11945,117076
7.12570,118729
7.13195,129627
7.13822,188588
7.14447,292208
7.15072,385026
7.15698,346158
7.16323,231292
7.16948,145647
7.17575,113939
7.18200,105937
7.18825,109689
7.19450,151756
7.20077,207848
7.20702,230332
7.21327,195417
7.21953,146113
7.22578,112979
7.23203,114348
7.23830,134032
7.24455,194978
7.25080,362485
7.25707,665650
7.26332,939588
7.26957,890752
7.27583,596134
7.28208,320124
7.28833,179307
7.29460,138124
7.30085,123844
7.30710,118221
7.31337,109538
7.31962,109649
7.32587,101355
7.33213,97269
7.33838,93085
7.34463,88829
7.35090,90063
7.35715,87834
7.36340,86090
7.36967,86667
7.37592,87248
7.38217,99430
7.38843,116796
7.39468,128932
7.40093,116531
7.40718,118707
7.41345,155793
7.41970,225019
7.42595,281587
7.43222,286452
7.43847,236822
7.44472,173135
7.45098,133688
7.45723,128807
7.46348,139969
7.46975,153006
7.47600,147013
7.48225,151946
7.48852,155113
7.49477,185057
7.50102,241087
7.50728,266428
7.51353,225487
7.51978,162687
7.52605,116678
7.53230,99984
7.53855,101670
7.54482,145773
7.55107,448818
7.55732,1758021
7.56358,5233094
7.56983,1.121943E+07
7.57608,1.755775E+07
7.58235,2.071994E+07
7.58860,1.652052E+07
7.59485,7503247
7.60112,2249730
7.60737,934858
7.61362,672556
7.61987,585297
7.62613,514201
7.63238,424495
7.63863,293305
7.64490,212137
7.65115,168594
7.65740,154989
7.66367,155888
7.66992,201955
7.67617,299105
7.68243,385482
7.68868,377345
7.69493,286083
7.70120,197014
7.70745,174793
7.71370,228691
7.71997,294999
7.72622,306662
7.73247,272187
7.73873,218925
7.74498,182669
7.75123,149372
7.75750,126897
7.76375,115339
7.77000,112336
7.77627,113883
7.78252,122993
7.78877,119315
7.79503,120754
7.80128,115220
7.80753,117545
7.81380,129494
7.82005,174660
7.82630,255055
7.83257,320518
7.83882,305431
7.84507,235775
7.85132,186565
7.85758,184830
7.86383,215622
7.87008,217660
7.87635,199249
7.88260,164864
7.88885,144284
7.89512,135699
7.90137,142209
7.90762,151403
7.91388,156798
7.92013,161522
7.92638,156407
7.93265,150857
7.93890,151944
7.94515,186333
7.95142,260148
7.95767,317913
7.96392,306145
7.97018,252722
7.97643,227308
7.98268,254562
7.98895,357612
7.99520,565070
8.00145,782135
8.00772,1014069
8.01397,1433801
8.02022,1833894
8.02648,1777416
8.03273,1271934
8.03898,760906
8.04525,622131
8.05150,736898
8.05775,812840
8.06400,700748
8.07027,467198
8.07652,296996
8.08277,281100
8.08903,394785
8.09528,548829
8.10153,654747
8.10780,755205
8.11405,909793
8.12030,1042515
8.12657,890168
8.13282,531107
8.13907,277973
8.14533,173493
8.15158,142159
8.15783,131113
8.16410,125200
8.17035,119149
8.17660,116646
8.18287,107014
8.18912,107103
8.19537,102144
8.20163,101404
8.20788,97259
8.21413,101256
8.22040,125634
8.22665,192367
8.23290,304447
8.23917,391950
8.24542,354173
8.25167,252451
8.25793,181119
8.26418,152259
8.27043,141152
8.27668,148337
8.28295,168551
8.28920,176891
8.29545,172121
8.30172,149946
8.30797,117862
8.31422,99142
8.32048,92345
8.32673,86632
8.33298,96075
8.33925,99422
8.34550,98826
8.35175,98549
8.35802,98672
8.36427,97294
8.37052,98326
8.37678,92315
8.38303,94769
8.38928,101618
8.39555,142316
8.40180,249516
8.40805,428771
8.41432,525990
8.42057,423046
8.42682,252601
8.43308,170058
8.43933,161652
8.44558,203942
8.45185,264342
8.45810,282164
8.46435,249055
8.47062,182284
8.47687,141469
8.48312,114114
8.48938,109892
8.49563,117992
8.50188,133627
8.50813,139025
8.51440,130971
8.52065,116255
8.52690,102340
8.53317,91390
8.53942,88201
8.54567,86480
8.55193,100949
8.55818,133837
8.56443,222491
8.57070,368339
8.57695,569750
8.58320,903433
8.58947,1379029
8.59572,1574321
8.60197,1398419
8.60823,1607635
8.61448,3499329
8.62073,7888552
8.62700,1.32146E+07
8.63325,1.548023E+07
8.63950,1.174765E+07
8.64577,5274434
8.65202,1423065
8.65827,370874
8.66453,209789
8.67078,183626
8.67703,176893
8.68330,165161
8.68955,180210
8.69580,192650
8.70207,192928
8.70832,184276
8.71457,195080
8.72082,179067
8.72708,162862
8.73333,145232
8.73958,147271
8.74585,156612
8.75210,157694
8.75835,140518
8.76462,114843
8.77087,97063
8.77712,99604
8.78338,100771
8.78963,95622
8.79588,92934
8.80215,83521
8.80840,82251
8.81465,83418
8.82092,89964
8.82717,125240
8.83342,283233
8.83968,801700
8.84593,2132512
8.85218,4491809
8.85845,7002549
8.86470,8062247
8.87095,6677914
8.87722,4723130
8.88347,3947423
8.88972,4235889
8.89598,4889857
8.90223,4898854
8.90848,3149931
8.91475,1214611
8.92100,513325
8.92725,265082
8.93352,172518
8.93977,138900
8.94602,131970
8.95227,141256
8.95853,167959
8.96478,205999
8.97103,232410
8.97730,247787
8.98355,262096
8.98980,295506
8.99607,386825
9.00232,534253
9.00857,685932
9.01483,722125
9.02108,558357
9.02733,376396
9.03360,344484
9.03985,497691
9.04610,702946
9.05237,757704
9.05862,559349
9.06487,322367
9.07113,207806
9.07738,153875
9.08363,140195
9.08990,146000
9.09615,160818
9.10240,165824
9.10867,154095
9.11492,129200
9.12117,119212
9.12743,111922
9.13368,122749
9.13993,138047
9.14620,152422
9.15245,167726
9.15870,206534
9.16495,251920
9.17122,274379
9.17747,272035
9.18372,289680
9.18998,327394
9.19623,356369
9.20248,313710
9.20875,224557
9.21500,149103
9.22125,116987
9.22752,108283
9.23377,116825
9.24002,150130
9.24628,199628
9.25253,229606
9.25878,208191
9.26505,157379
9.27130,116304
9.27755,97925
9.28382,100418
9.29007,123163
9.29632,182349
9.30258,271833
9.30883,333664
9.31508,354302
9.32135,370616
9.32760,355645
9.33385,360693
9.34012,455507
9.34637,711877
9.35262,975432
9.35888,969785
9.36513,715732
9.37138,450177
9.37765,658224
9.38390,2176946
9.39015,5896156
9.39640,1.122359E+07
9.40267,1.504776E+07
9.40892,1.317756E+07
9.41517,7299224
9.42143,2519191
9.42768,837321
9.43393,1155358
9.44020,3761871
9.44645,1.012801E+07
9.45270,1.984862E+07
9.45897,2.820955E+07
9.46522,2.990681E+07
9.47147,2.356659E+07
9.47773,1.16293E+07
9.48398,3342583
9.49023,863826
9.49650,342522
9.50275,224488
9.50900,186625
9.51527,172304
9.52152,172585
9.52777,166699
9.53403,159153
9.54028,155344
9.54653,150773
9.55280,150899
9.55905,148640
9.56530,154987
9.57157,178068
9.57782,197213
9.58407,185012
9.59033,163658
9.59658,150652
9.60283,146755
9.60908,171621
9.61535,197899
9.62160,203050
9.62785,186771
9.63412,150110
9.64037,126221
9.64662,125502
9.65288,129123
9.65913,131756
9.66538,124165
9.67165,128542
9.67790,266389
9.68415,1036939
9.69042,3476515
9.69667,8126141
9.70292,1.304608E+07
9.70918,1.415499E+07
9.71543,1.013013E+07
9.72168,4237763
9.72795,2387572
9.73420,3415510
9.74045,4995498
9.74672,5084832
9.75297,3462815
9.75922,1543872
9.76548,545942
9.77173,239237
9.77798,166686
9.78425,146597
9.79050,123214
9.79675,109907
9.80302,103677
9.80927,103202
9.81552,103435
9.82178,108051
9.82803,108982
9.83428,115968
9.84053,140482
9.84680,189781
9.85305,365288
9.85930,1103959
9.86557,3390824
9.87182,7770926
9.87807,1.251293E+07
9.88433,1.401566E+07
9.89058,1.038599E+07
9.89683,4794396
9.90310,1874911
9.90935,1492294
9.91560,1665956
9.92187,1386671
9.92812,778797
9.93437,339628
9.94063,181316
9.94688,155130
9.95313,168445
9.95940,226813
9.96565,376630
9.97190,608146
9.97817,813308
9.98442,843153
9.99067,735628
9.99693,560936
10.00318,390666
10.00943,283095
10.01570,223384
10.02195,200102
10.02820,178677
10.03447,154168
10.04072,136530
10.04697,130148
10.05322,126357
10.05948,123789
10.06573,115781
10.07198,102554
10.07825,106057
10.08450,111474
10.09075,130095
10.09702,152833
10.10327,171893
10.10952,210522
10.11578,257144
10.12203,301764
10.12828,277594
10.13455,206584
10.14080,152924
10.14705,123067
10.15332,113060
10.15957,110109
10.16582,107161
10.17208,108778
10.17833,115278
10.18458,127307
10.19085,134534
10.19710,128637
10.20335,116516
10.20962,113413
10.21587,149740
10.22212,268066
10.22838,486818
10.23463,692964
10.24088,713289
10.24715,591793
10.25340,430224
10.25965,307349
10.26590,240137
10.27217,204768
10.27842,170894
10.28467,180552
10.29093,237283
10.29718,316503
10.30343,333857
10.30970,255838
10.31595,181825
10.32220,161873
10.32847,220930
10.33472,354690
10.34097,500616
10.34723,502803
10.35348,364866
10.35973,224105
10.36600,164688
10.37225,144095
10.37850,127786
10.38477,115106
10.39102,106752
10.39727,101137
10.40353,94366
10.40978,89819
10.41603,89844
10.42230,96629
10.42855,109829
10.43480,111503
10.44107,114595
10.44732,118499
10.45357,120053
10.45983,126494
10.46608,123711
10.47233,122852
10.47860,138558
10.48485,180652
10.49110,235102
10.49735,241303
10.50362,193121
10.50987,151940
10.51612,120168
10.52238,104844
10.52863,119838
10.53488,158078
10.54115,200690
10.54740,221656
10.55365,200446
10.55992,162715
10.56617,149966
10.57242,155167
10.57868,174637
10.58493,189937
10.59118,188476
10.59745,202647
10.60370,336385
10.60995,1015423
10.61622,3098503
10.62247,7011714
10.62872,1.068726E+07
10.63498,1.142104E+07
10.64123,8150155
10.64748,3405261
10.65375,994468
10.66000,308745
10.66625,175507
10.67252,158606
10.67877,165461
10.68502,170334
10.69128,154544
10.69753,132605
10.70378,114936
10.71003,104760
10.71630,107428
10.72255,118569
10.72880,128159
10.73507,141386
10.74132,147569
10.74757,150300
10.75383,141829
10.76008,141430
10.76633,138170
10.77260,146056
10.77885,155515
10.78510,154240
10.79137,143243
10.79762,141871
10.80387,149106
10.81013,187867
10.81638,292833
10.82263,393642
10.82890,404785
10.83515,299241
10.84140,199046
10.84767,141698
10.85392,131849
10.86017,139183
10.86643,141658
10.87268,149066
10.87893,145596
10.88520,140721
10.89145,142976
10.89770,151097
10.90397,170930
10.91022,185761
10.91647,183060
10.92272,171762
10.92898,161626
10.93523,161693
10.94148,148913
10.94775,126668
10.95400,111782
10.96025,139726
10.96652,321503
10.97277,1078169
10.97902,3319437
10.98528,7808752
10.99153,1.411294E+07
10.99778,1.870281E+07
11.00405,1.808177E+07
11.01030,1.094759E+07
11.01655,3877080
11.02282,896264
11.02907,271586
11.03532,204336
11.04158,214053
11.04783,227473
11.05408,244561
11.06035,267871
11.06660,284440
11.07285,255663
11.07912,197728
11.08537,149091
11.09162,128991
11.09788,143740
11.10413,158769
11.11038,166326
11.11665,161785
11.12290,156707
11.12915,160194
11.13542,163918
11.14167,175720
11.14792,186848
11.15417,204562
11.16043,285613
11.16668,421216
11.17293,529579
11.17920,513045
11.18545,369846
11.19170,228223
11.19797,160629
11.20422,145709
11.21047,165491
11.21673,192020
11.22298,213430
11.22923,216408
11.23550,199760
11.24175,184226
11.24800,183070
11.25427,210486
11.26052,223003
11.26677,207948
11.27303,201273
11.27928,212029
11.28553,230761
11.29180,232934
11.29805,199969
11.30430,161979
11.31057,147391
11.31682,170672
11.32307,257329
11.32933,403220
11.33558,527196
11.34183,509459
11.34810,347812
11.35435,200129
11.36060,130878
11.36685,116097
11.37312,122041
11.37937,122846
11.38562,117191
11.39188,116258
11.39813,117916
11.40438,124872
11.41065,128283
11.41690,129978
11.42315,125295
11.42942,129943
11.43567,154851
11.44192,236380
11.44818,398732
11.45443,564230
11.46068,617637
11.46695,477215
11.47320,303315
11.47945,212056
11.48572,191600
11.49197,192142
11.49822,170942
11.50448,153809
11.51073,137114
11.51698,132189
11.52325,125840
11.52950,127082
11.53575,123962
11.54202,126779
11.54827,126258
11.55452,120734
11.56078,117179
11.56703,107979
11.57328,105454
11.57955,107424
11.58580,112585
11.59205,114592
11.59830,123239
11.60457,127280
11.61082,126455
11.61707,122589
11.62333,115959
11.62958,117923
11.63583,117269
11.64210,122636
11.64835,137822
11.65460,150231
11.66087,160687
11.66712,162407
11.67337,151118
11.67963,138357
11.68588,130537
11.69213,128725
11.69840,137957
11.70465,174864
11.71090,267648
11.71717,410186
11.72342,535982
11.72967,521951
11.73593,383593
11.74218,257907
11.74843,180697
11.75470,145090
11.76095,136360
11.76720,145081
11.77347,166904
11.77972,182501
11.78597,195516
11.79223,202072
11.79848,205044
11.80473,202726
11.81098,191686
11.81725,184436
11.82350,177697
11.82975,214964
11.83602,345609
11.84227,534450
11.84852,621739
11.85478,554785
11.86103,386285
11.86728,257283
11.87355,190273
11.87980,176957
11.88605,212832
11.89232,282762
11.89857,352920
11.90482,364976
11.91108,330953
11.91733,262012
11.92358,209194
11.92985,180458
11.93610,188439
11.94235,277177
11.94862,562422
11.95487,1313808
11.96112,2788653
11.96738,4410480
11.97363,5125549
11.97988,3953860
11.98615,2096250
11.99240,834621
11.99865,389850
12.00492,320276
12.01117,329278
12.01742,328876
12.02368,308458
12.02993,291009
12.03618,314029
12.04243,400520
12.04870,568970
12.05495,772278
12.06120,888097
12.06747,841566
12.07372,640141
12.07997,467293
12.08623,385242
12.09248,380859
12.09873,386471
12.10500,371450
12.11125,328431
12.11750,267384
12.12377,222308
12.13002,191113
12.13627,183620
12.14253,177775
12.14878,173952
12.15503,167760
12.16130,161919
12.16755,163458
12.17380,158768
12.18007,162350
12.18632,172713
12.19257,203048
12.19883,261938
12.20508,330607
12.21133,408594
12.21760,470516
12.22385,472586
12.23010,408068
12.23637,340651
12.24262,325551
12.24887,397009
12.25512,628226
12.26138,1086690
12.26763,1779507
12.27388,2598380
12.28015,3007384
12.28640,2677582
12.29265,1757241
12.29892,849878
12.30517,378443
12.31142,200058
12.31768,151089
12.32393,134524
12.33018,143443
12.33645,154191
12.34270,176181
12.34895,199267
12.35522,229402
12.36147,232405
12.36772,229017
12.37398,216180
12.38023,227711
12.38648,273956
12.39275,333123
12.39900,351284
12.40525,303832
12.41152,238907
12.41777,201942
12.42402,190359
12.43028,201547
12.43653,234320
12.44278,263990
12.44905,267772
12.45530,241404
12.46155,217263
12.46782,216042
12.47407,276663
12.48032,449200
12.48657,868922
12.49283,1524653
12.49908,2075855
12.50533,2172885
12.51160,1644058
12.51785,890191
12.52410,407295
12.53037,228667
12.53662,214819
12.54287,263743
12.54913,327210
12.55538,324377
12.56163,272582
12.56790,254355
12.57415,342143
12.58040,665976
12.58667,1274642
12.59292,2069984
12.59917,2550137
12.60543,2296594
12.61168,1841307
12.61793,1810046
12.62420,2389086
12.63045,3385364
12.63670,4711285
12.64297,6293022
12.64922,8859854
12.65547,1.247531E+07
12.66173,1.766356E+07
12.66798,2.359778E+07
12.67423,2.809858E+07
12.68050,2.901379E+07
12.68675,2.758468E+07
12.69300,2.052248E+07
12.69925,8161336
12.70552,1756665
12.71177,647001
12.71802,681883
12.72428,890820
12.73053,940583
12.73678,909420
12.74305,907142
12.74930,908376
12.75555,821929
12.76182,641171
12.76807,497380
12.77432,403991
12.78058,352499
12.78683,357286
12.79308,383074
12.79935,400104
12.80560,377566
12.81185,314790
12.81812,277061
12.82437,262205
12.83062,271629
12.83688,286971
12.84313,276121
12.84938,255516
12.85565,238507
12.86190,238625
12.86815,240889
12.87442,236312
12.88067,253854
12.88692,328706
12.89318,485801
12.89943,688108
12.90568,805881
12.91193,758112
12.91820,586630
12.92445,442467
12.93070,337020
12.93697,267155
12.94322,222374
12.94947,202848
12.95573,194438
12.96198,192611
12.96823,187273
12.97450,179933
12.98075,177750
12.98700,184155
12.99327,200962
12.99952,222686
13.00577,238418
13.01203,249894
13.01828,271204
13.02453,339723
13.03080,483341
13.03705,684929
13.04330,817977
13.04957,724950
13.05582,515456
13.06207,358513
13.06833,398690
13.07458,714150
13.08083,1472703
13.08710,2659868
13.09335,3581859
13.09960,3310161
13.10587,2189296
13.11212,1124047
13.11837,625454
13.12463,415001
13.13088,321302
13.13713,291621
13.14338,279726
13.14965,271684
13.15590,258192
13.16215,232755
13.16842,219443
13.17467,205239
13.18092,191755
13.18718,180989
13.19343,169626
13.19968,169336
13.20595,171501
13.21220,164395
13.21845,174054
13.22472,185487
13.23097,203818
13.23722,229427
13.24348,255936
13.24973,259364
13.25598,252728
13.26225,270123
13.26850,279337
13.27475,282638
13.28102,270597
13.28727,267371
13.29352,326915
13.29978,496170
13.30603,851843
13.31228,1301008
13.31855,1561901
13.32480,1320249
13.33105,779625
13.33732,400367
13.34357,264216
13.34982,242564
13.35607,254591
13.36233,257339
13.36858,239718
13.37483,224300
13.38110,209669
13.38735,198374
13.39360,183055
13.39987,175731
13.40612,174633
13.41237,181444
13.41863,186008
13.42488,207452
13.43113,242461
13.43740,285049
13.44365,316222
13.44990,317290
13.45617,288491
13.46242,252137
13.46867,225355
13.47493,201733
13.48118,201854
13.48743,206222
13.49370,214472
13.49995,209204
13.50620,208157
13.51247,210543
13.51872,218027
13.52497,231320
13.53123,243820
13.53748,260583
13.54373,297841
13.55000,393398
13.55625,571490
13.56250,708100
13.56875,724593
13.57502,594190
13.58127,453392
13.58752,424504
13.59378,575051
13.60003,899046
13.60628,1365748
13.61255,1622836
13.61880,1451767
13.62505,1034565
13.63132,653554
13.63757,460746
13.64382,362773
13.65008,327668
13.65633,326083
13.66258,329261
13.66885,317060
13.67510,301724
13.68135,308900
13.68762,354012
13.69387,420158
13.70012,485121
13.70638,474479
13.71263,398965
13.71888,314581
13.72515,274438
13.73140,259998
13.73765,262303
13.74392,265374
13.75017,292607
13.75642,395341
13.76268,646534
13.76893,1000895
13.77518,1225419
13.78145,1084313
13.78770,707185
13.79395,472655
13.80020,473408
13.80647,816770
13.81272,1709161
13.81897,3293905
13.82523,6143589
13.83148,1.039391E+07
13.83773,1.592431E+07
13.84400,2.129517E+07
13.85025,2.286563E+07
13.85650,1.493476E+07
13.86277,4943791
13.86902,1027555
13.87527,337342
13.88153,264829
13.88778,379498
13.89403,731383
13.90030,1574094
13.90655,3128694
13.91280,5788614
13.91907,8545215
13.92532,9788054
13.93157,7355402
13.93783,3727027
13.94408,1269186
13.95033,381277
13.95660,194811
13.96285,173696
13.96910,167839
13.97537,163443
13.98162,162809
13.98787,161115
13.99413,166802
14.00038,173274
14.00663,200017
14.01288,228994
14.01915,259568
14.02540,254784
14.03165,210181
14.03792,170235
14.04417,144578
14.05042,138843
14.05668,141888
14.06293,157396
14.06918,179737
14.07545,202680
14.08170,213595
14.08795,191009
14.09422,162059
14.10047,140703
14.10672,127487
14.11298,123168
14.11923,128013
14.12548,136347
14.13175,148029
14.13800,145579
14.14425,139572
14.15052,136396
14.15677,138030
14.16302,135388
14.16928,139590
14.17553,130573
14.18178,119575
14.18805,117135
14.19430,118146
14.20055,125167
14.20682,134332
14.21307,158138
14.21932,203221
14.22557,268591
14.23183,338410
14.23808,377384
14.24433,371500
14.25060,319236
14.25685,270593
14.26310,311135
14.26937,542334
14.27562,1025248
14.28187,1479670
14.28813,1652240
14.29438,1171826
14.30063,627804
14.30690,321557
14.31315,232762
14.31940,235188
14.32567,301563
14.33192,384930
14.33817,401867
14.34443,345811
14.35068,270927
14.35693,202365
14.36320,171593
14.36945,159263
14.37570,163773
14.38197,176440
14.38822,187056
14.39447,208630
14.40073,280207
14.40698,521327
14.41323,1240361
14.41950,2642579
14.42575,4409251
14.43200,5786146
14.43827,5208072
14.44452,3742763
14.45077,2530833
14.45702,1804332
14.46328,1339252
14.46953,1072069
14.47578,1018949
14.48205,1057089
14.48830,1050918
14.49455,886164
14.50082,611181
14.50707,386793
14.51332,257291
14.51958,209689
14.52583,201386
14.53208,215202
14.53835,214963
14.54460,208559
14.55085,197218
14.55712,202322
14.56337,206990
14.56962,204884
14.57588,210013
14.58213,209786
14.58838,195442
14.59465,183591
14.60090,172129
14.60715,179367
14.61342,188513
14.61967,192938
14.62592,200848
14.63218,204818
14.63843,235227
14.64468,322279
14.65095,437893
14.65720,525782
14.66345,489837
14.66970,388801
14.67597,304014
14.68222,261197
14.68847,242280
14.69473,274750
14.70098,339845
14.70723,397790
14.71350,428393
14.71975,435028
14.72600,526959
14.73227,796522
14.73852,1288119
14.74477,1748119
14.75103,2084050
14.75728,2304139
14.76353,2665305
14.76980,2836368
14.77605,2329906
14.78230,1378948
14.78857,641099
14.79482,400357
14.80107,596330
14.80733,1259883
14.81358,2135720
14.81983,2727381
14.82610,2328434
14.83235,1347700
14.83860,599740
14.84487,268075
14.85112,197947
14.85737,218221
14.86363,295103
14.86988,400713
14.87613,444354
14.88240,402652
14.88865,316241
14.89490,244503
14.90115,218533
14.90742,244946
14.91367,360018
14.91992,538367
14.92618,725881
14.93243,833169
14.93868,760365
14.94495,598394
14.95120,477820
14.95745,428098
14.96372,633432
14.96997,1237247
14.97622,2578395
14.98248,4459394
14.98873,5494141
14.99498,4821254
15.00125,2882578
15.00750,1229407
15.01375,485402
15.02002,275473
15.02627,224418
15.03252,209481
15.03878,225804
15.04503,250681
15.05128,290753
15.05755,301986
15.06380,302578
15.07005,276441
15.07632,253975
15.08257,240880
15.08882,242072
15.09508,261645
15.10133,302584
15.10758,328766
15.11383,363984
15.12010,421600
15.12635,513336
15.13260,636129
15.13887,742779
15.14512,841761
15.15137,940199
15.15763,1012950
15.16388,1365405
15.17013,2364817
15.17640,3671203
15.18265,4412379
15.18890,3927436
15.19517,2383497
15.20142,1112100
15.20767,554561
15.21393,347329
15.22018,257317
15.22643,205126
15.23270,183255
15.23895,179743
15.24520,185011
15.25147,206329
15.25772,239543
15.26397,257971
15.27023,245328
15.27648,214527
15.28273,184051
15.28900,168617
15.29525,161480
15.30150,166979
15.30777,171891
15.31402,185335
15.32027,214989
15.32653,262695
15.33278,300263
15.33903,289953
15.34528,249932
15.35155,216382
15.35780,213888
15.36405,248205
15.37032,284417
15.37657,280385
15.38282,247284
15.38908,200567
15.39533,179202
15.40158,163436
15.40785,150718
15.41410,146878
15.42035,164078
15.42662,217683
15.43287,309219
15.43912,428648
15.44538,558097
15.45163,729188
15.45788,911839
15.46415,969019
15.47040,752495
15.47665,490741
15.48292,300507
15.48917,208550
15.49542,176487
15.50168,186176
15.50793,238146
15.51418,325312
15.52045,571825
15.52670,1224110
15.53295,2635260
15.53922,4790206
15.54547,6671031
15.55172,8764745
15.55797,1.200128E+07
15.56423,1.514826E+07
15.57048,1.541125E+07
15.57673,1.000142E+07
15.58300,3738189
15.58925,1017587
15.59550,453260
15.60177,360925
15.60802,343398
15.61427,359088
15.62053,371054
15.62678,367673
15.63303,336179
15.63930,315799
15.64555,289314
15.65180,253784
15.65807,222928
15.66432,213792
15.67057,208426
15.67683,223896
15.68308,236585
15.68933,251625
15.69560,253887
15.70185,242062
15.70810,231070
15.71437,218460
15.72062,189268
15.72687,170472
15.73313,170468
15.73938,178641
15.74563,188355
15.75190,207035
15.75815,217416
15.76440,207866
15.77065,184643
15.77692,158393
15.78317,141409
15.78942,130233
15.79568,131393
15.80193,137184
15.80818,140739
15.81445,145137
15.82070,154724
15.82695,170122
15.83322,212640
15.83947,320345
15.84572,492015
15.85198,690135
15.85823,771769
15.86448,589946
15.87075,369686
15.87700,234846
15.88325,192323
15.88952,181969
15.89577,189817
15.90202,182536
15.90828,165440
15.91453,151709
15.92078,147906
15.92705,144593
15.93330,154082
15.93955,155823
15.94582,153860
15.95207,143970
15.95832,136749
15.96458,142463
15.97083,153810
15.97708,156633
15.98335,148625
15.98960,132030
15.99585,125790
16.00210,123466
16.00837,144084
16.01462,216869
16.02087,336888
16.02713,479560
16.03338,565810
16.03963,600825
16.04590,658296
16.05215,786743
16.05840,901577
16.06467,829943
16.07092,644421
16.07717,500154
16.08343,556296
16.08968,696304
16.09593,853432
16.10220,873982
16.10845,896609
16.11470,1122188
16.12097,1809850
16.12722,2872230
16.13347,3606755
16.13973,3290729
16.14598,2061675
16.15223,1010419
16.15850,460560
16.16475,289327
16.17100,262136
16.17727,254347
16.18352,244598
16.18977,261626
16.19603,298887
16.20228,360528
16.20853,358017
16.21478,286609
16.22105,240325
16.22730,276483
16.23355,449617
16.23982,712259
16.24607,890745
16.25232,829693
16.25858,520863
16.26483,318065
16.27108,221924
16.27735,193060
16.28360,171449
16.28985,166730
16.29612,185707
16.30237,246338
16.30862,361589
16.31488,473115
16.32113,484986
16.32738,390035
16.33365,265832
16.33990,197487
16.34615,177815
16.35242,174217
16.35867,176322
16.36492,176037
16.37118,181402
16.37743,168560
16.38368,163967
16.38995,159461
16.39620,162509
16.40245,161330
16.40872,159953
16.41497,160039
16.42122,161018
16.42747,172282
16.43373,216084
16.43998,363806
16.44623,647622
16.45250,968035
16.45875,1151575
16.46500,957207
16.47127,698718
16.47752,517827
16.48377,415953
16.49003,334588
16.49628,271009
16.50253,244814
16.50880,261176
16.51505,314625
16.52130,421815
16.52757,542972
16.53382,633912
16.54007,576754
16.54633,475458
16.55258,417620
16.55883,363787
16.56510,323214
16.57135,289981
16.57760,264353
16.58387,261995
16.59012,265836
16.59637,272020
16.60263,274898
16.60888,268894
16.61513,268260
16.62140,274611
16.62765,284426
16.63390,295348
16.64017,318076
16.64642,348282
16.65267,392516
16.65892,417396
16.66518,381679
16.67143,329218
16.67768,297155
16.68395,304617
16.69020,319016
16.69645,326116
16.70272,308282
16.70897,273343
16.71522,241737
16.72148,220342
16.72773,221957
16.73398,227120
16.74025,229562
16.74650,243756
16.75275,257659
16.75902,299489
16.76527,405274
16.77152,673048
16.77778,1236116
16.78403,1971601
16.79028,2526730
16.79655,2753943
16.80280,3205371
16.80905,4263257
16.81532,5001937
16.82157,5708810
16.82782,6603271
16.83408,7777505
16.84033,9471902
16.84658,1.116139E+07
16.85285,1.121569E+07
16.85910,9052486
16.86535,5865536
16.87160,3775971
16.87787,3129308
16.88412,3180703
16.89037,3345493
16.89663,3484525
16.90288,3407132
16.90913,3088777
16.91540,2459943
16.92165,2186825
16.92790,2348659
16.93417,2847810
16.94042,3217270
16.94667,3302050
16.95293,3256693
16.95918,3326511
16.96543,3414150
16.97170,3131977
16.97795,2492993
16.98420,1682279
16.99047,1209955
16.99672,1003621
17.00297,969270
17.00923,1236866
17.01548,2117862
17.02173,4086270
17.02800,7712316
17.03425,1.23337E+07
17.04050,1.720986E+07
17.04677,2.342073E+07
17.05302,3.043158E+07
17.05927,3.876872E+07
17.06553,4.563433E+07
17.07178,4.852055E+07
17.07803,4.816028E+07
17.08428,4.571214E+07
17.09055,4.296354E+07
17.09680,4.069919E+07
17.10305,3.927504E+07
17.10932,4.056802E+07
17.11557,4.142335E+07
17.12182,1.070967E+07
17.12808,8000430
17.13433,7965508
17.14058,6702980
17.14685,5108455
17.15310,5407842
17.15935,9061574
17.16562,1.706771E+07
17.17187,2.705142E+07
17.17812,3.4059E+07
17.18438,3.573749E+07
17.19063,2.746211E+07
17.19688,1.132104E+07
17.20315,3603119
17.20940,2185107
17.21565,2296505
17.22192,2845925
17.22817,3551854
17.23442,5207511
17.24068,9608472
17.24693,1.823481E+07
17.25318,2.931366E+07
17.25945,3.850775E+07
17.26570,4.223356E+07
17.27195,3.976265E+07
17.27822,2.472992E+07
17.28447,9749768
17.29072,6570816
17.29698,9717791
17.30323,1.355169E+07
17.30948,1.491696E+07
17.31573,1.26752E+07
17.32200,6873354
17.32825,3119598
17.33450,1600026
17.34077,1126372
17.34702,934833
17.35327,835263
17.35953,756216
17.36578,703064
17.37203,684999
17.37830,658556
17.38455,670741
17.39080,665914
17.39707,697762
17.40332,777766
17.40957,893019
17.41583,1010825
17.42208,1045310
17.42833,975151
17.43460,958007
17.44085,1125344
17.44710,1713249
17.45337,2963267
17.45962,4338221
17.46587,4975014
17.47213,4197239
17.47838,2563502
17.48463,1282546
17.49090,745405
17.49715,609039
17.50340,598395
17.50967,658724
17.51592,766188
17.52217,860136
17.52842,870188
17.53468,759126
17.54093,616749
17.54718,528747
17.55345,547013
17.55970,688947
17.56595,1108477
17.57222,2186513
17.57847,4356840
17.58472,6963707
17.59098,8014366
17.59723,6490188
17.60348,3664256
17.60975,1638539
17.61600,883728
17.62225,751700
17.62852,795054
17.63477,811225
17.64102,715544
17.64728,604522
17.65353,513967
17.65978,481932
17.66605,455107
17.67230,425530
17.67855,421630
17.68482,421836
17.69107,444293
17.69732,484774
17.70358,561918
17.70983,646779
17.71608,683961
17.72235,627771
17.72860,515592
17.73485,434325
17.74112,407596
17.74737,429769
17.75362,454432
17.75987,483998
17.76613,515145
17.77238,586305
17.77863,737586
17.78490,966175
17.79115,1408964
17.79740,2263750
17.80367,3771940
17.80992,5841434
17.81617,7746077
17.82243,8217268
17.82868,6493976
17.83493,3917277
17.84120,2128063
17.84745,1361018
17.85370,980962
17.85997,871497
17.86622,1330311
17.87247,2820194
17.87873,5296215
17.88498,7117061
17.89123,6911338
17.89750,4484393
17.90375,2137436
17.91000,964201
17.91627,578276
17.92252,472835
17.92877,431423
17.93503,413767
17.94128,398835
17.94753,382668
17.95380,375371
17.96005,373718
17.96630,387985
17.97255,392367
17.97882,393224
17.98507,416623
17.99132,443105
17.99758,498355
18.00383,601110
18.01008,744366
18.01635,881925
18.02260,886295
18.02885,774338
18.03512,613530
18.04137,492364
18.04762,433276
18.05388,400135
18.06013,370686
18.06638,338785
18.07265,319346
18.07890,317764
18.08515,327526
18.09142,366064
18.09767,436425
18.10392,517940
18.11018,555500
18.11643,568524
18.12268,573721
18.12895,739221
18.13520,1231096
18.14145,2212685
18.14772,3484442
18.15397,4030555
18.16022,3050724
18.16648,1720536
18.17273,822171
18.17898,455719
18.18525,353441
18.19150,314529
18.19775,298471
18.20400,297683
18.21027,302454
18.21652,330638
18.22277,366936
18.22903,390447
18.23528,381275
18.24153,341092
18.24780,304189
18.25405,302606
18.26030,300834
18.26657,316934
18.27282,346880
18.27907,386982
18.28533,440616
18.29158,520815
18.29783,772160
18.30410,1173853
18.31035,1580864
18.31660,1687283
18.32287,1603451
18.32912,1326056
18.33537,924208
18.34163,551637
18.34788,353708
18.35413,286530
18.36040,287999
18.36665,301052
18.37290,313741
18.37917,310764
18.38542,343485
18.39167,397860
18.39793,445061
18.40418,449223
18.41043,431343
18.41668,442590
18.42295,450147
18.42920,411406
18.43545,357343
18.44172,318153
18.44797,279993
18.45422,266314
18.46048,239586
18.46673,227615
18.47298,221754
18.47925,216362
18.48550,213987
18.49175,211072
18.49802,207444
18.50427,207867
18.51052,211671
18.51678,210800
18.52303,213987
18.52928,211634
18.53555,217958
18.54180,219813
18.54805,227348
18.55432,249547
18.56057,259777
18.56682,262552
18.57308,249069
18.57933,241262
18.58558,231250
18.59185,224299
18.59810,238849
18.60435,299571
18.61062,411249
18.61687,584100
18.62312,691160
18.62938,625808
18.63563,470724
18.64188,389387
18.64813,384025
18.65440,394047
18.66065,381262
18.66690,336942
18.67317,304754
18.67942,285580
18.68567,270557
18.69193,243635
18.69818,229642
18.70443,236689
18.71070,267253
18.71695,305253
18.72320,340102
18.72947,337719
18.73572,300870
18.74197,260830
18.74823,229834
18.75448,218836
18.76073,234235
18.76700,227632
18.77325,222129
18.77950,210668
18.78577,200379
18.79202,185288
18.79827,189434
18.80453,187294
18.81078,191405
18.81703,197284
18.82330,198871
18.82955,207939
18.83580,205216
18.84207,204290
18.84832,199903
18.85457,206518
18.86082,250139
18.86708,425624
18.87333,897205
18.87958,2047961
18.88585,4924190
18.89210,1.13572E+07
18.89835,2.057072E+07
18.90462,3.312598E+07
18.91087,4.312598E+07
18.91712,4.879206E+07
18.92338,4.522087E+07
18.92963,3.002399E+07
18.93588,1.05719E+07
18.94215,2267738
18.94840,638361
18.95465,382574
18.96092,320450
18.96717,271615
18.97342,246820
18.97968,228732
18.98593,214959
18.99218,213101
18.99845,210661
19.00470,218994
19.01095,233219
19.01722,238430
19.02347,241967
19.02972,230376
19.03598,222393
19.04223,217355
19.04848,230023
19.05475,241050
19.06100,255381
19.06725,242832
19.07350,235672
19.07977,236700
19.08602,268271
19.09227,302317
19.09853,328321
19.10478,333519
19.11103,313777
19.11730,297405
19.12355,280739
19.12980,271308
19.13607,277799
19.14232,287057
19.14857,281698
19.15483,260238
19.16108,241574
19.16733,225380
19.17360,209733
19.17985,195168
19.18610,194005
19.19237,197034
19.19862,208974
19.20487,213778
19.21113,212344
19.21738,203256
19.22363,199573
19.22990,190034
19.23615,176279
19.24240,167717
19.24867,164126
19.25492,163885
19.26117,162129
19.26743,163168
19.27368,158986
19.27993,155618
19.28620,160997
19.29245,173393
19.29870,181532
19.30495,178765
19.31122,177497
19.31747,172260
19.32372,156458
19.32998,152844
19.33623,160573
19.34248,174129
19.34875,203605
19.35500,226624
19.36125,246471
19.36752,238349
19.37377,224782
19.38002,211886
19.38628,201896
19.39253,204036
19.39878,213624
19.40505,231347
19.41130,248963
19.41755,252886
19.42382,234285
19.43007,215752
19.43632,202954
19.44258,198412
19.44883,199774
19.45508,210531
19.46135,211748
19.46760,203383
19.47385,193718
19.48012,178929
19.48637,180668
19.49262,181904
19.49888,197993
19.50513,206949
19.51138,212760
19.51763,218318
19.52390,221477
19.53015,221499
19.53640,220974
19.54267,231391
19.54892,267995
19.55517,325771
19.56143,365313
19.56768,351797
19.57393,305859
19.58020,240647
19.58645,202898
19.59270,183473
19.59897,179850
19.60522,184571
19.61147,184057
19.61773,177105
19.62398,174616
19.63023,183000
19.63650,218641
19.64275,250077
19.64900,261702
19.65527,257983
19.66152,231835
19.66777,230589
19.67403,262342
19.68028,314098
19.68653,363642
19.69280,369045
19.69905,327422
19.70530,272408
19.71157,253469
19.71782,259022
19.72407,250177
19.73032,249557
19.73658,255970
19.74283,268437
19.74908,275146
19.75535,255839
19.76160,255045
19.76785,258192
19.77412,286819
19.78037,314802
19.78662,323189
19.79288,305472
19.79913,309764
19.80538,331585
19.81165,337783
19.81790,310792
19.82415,259984
19.83042,209095
19.83667,180310
19.84292,177668
19.84918,170046
19.85543,187914
19.86168,218427
19.86795,259388
19.87420,287017
19.88045,292073
19.88672,258775
19.89297,228095
19.89922,212909
19.90548,267855
19.91173,542695
19.91798,1384814
19.92425,2968840
19.93050,4693613
19.93675,5146059
19.94302,3995846
19.94927,2160929
19.95552,933214
19.96177,433430
19.96803,368557
19.97428,462965
19.98053,590154
19.98680,685389
19.99305,708189
19.99930,621840
20.00557,495691
20.01182,369619
20.01807,285386
20.02433,246405
20.03058,225286
20.03683,215462
20.04310,223481
20.04935,246633
20.05560,268746
20.06187,282954
20.06812,258034
20.07437,224060
20.08063,198360
20.08688,188601
20.09313,199100
20.09940,224561
20.10565,240419
20.11190,239859
20.11817,222529
20.12442,195769
20.13067,182089
20.13693,181974
20.14318,187914
20.14943,198568
20.15570,194300
20.16195,195238
20.16820,190499
20.17445,188984
20.18072,181949
20.18697,189416
20.19322,188964
20.19948,193568
20.20573,214253
20.21198,228753
20.21825,241374
20.22450,256909
20.23075,266662
20.23702,281842
20.24327,268936
20.24952,252691
20.25578,235909
20.26203,223268
20.26828,216215
20.27455,213287
20.28080,214438
20.28705,226501
20.29332,312024
20.29957,558457
20.30582,967177
20.31208,1345478
20.31833,1450239
20.32458,1130815
20.33085,699640
20.33710,398323
20.34335,287544
20.34962,274988
20.35587,287428
20.36212,284287
20.36838,258035
20.37463,232304
20.38088,218979
20.38715,217758
20.39340,218427
20.39965,221995
20.40590,225731
20.41217,238955
20.41842,275400
20.42467,336901
20.43093,517602
20.43718,881505
20.44343,1493310
20.44970,2213134
20.45595,2254390
20.46220,1724558
20.46847,1010276
20.47472,620257
20.48097,570016
20.48723,724979
20.49348,867845
20.49973,853984
20.50600,697431
20.51225,482738
20.51850,363374
20.52477,321958
20.53102,313573
20.53727,318600
20.54353,330711
20.54978,397671
20.55603,510082
20.56230,605819
20.56855,614066
20.57480,519332
20.58107,399147
20.58732,335584
20.59357,328783
20.59983,356717
20.60608,361857
20.61233,338501
20.61858,299773
20.62485,262088
20.63110,230769
20.63735,207381
20.64362,210047
20.64987,224027
20.65612,250784
20.66238,278444
20.66863,293342
20.67488,290420
20.68115,268793
20.68740,247432
20.69365,233128
20.69992,225340
20.70617,242630
20.71242,340380
20.71868,593885
20.72493,986927
20.73118,1388735
20.73745,1450706
20.74370,1174124
20.74995,794950
20.75622,549723
20.76247,508379
20.76872,718577
20.77498,997947
20.78123,1198020
20.78748,1100624
20.79375,812004
20.80000,539102
20.80625,395008
20.81252,327911
20.81877,273645
20.82502,242760
20.83128,239522
20.83753,255227
20.84378,286980
20.85003,301899
20.85630,292293
20.86255,282127
20.86880,270690
20.87507,255171
20.88132,241566
20.88757,234909
20.89383,233857
20.90008,247358
20.90633,270613
20.91260,288581
20.91885,311188
20.92510,321051
20.93137,344811
20.93762,471740
20.94387,764925
20.95013,1144355
20.95638,1489577
20.96263,1423940
20.96890,1041310
20.97515,727725
20.98140,552558
20.98767,453464
20.99392,362917
21.00017,335958
21.00643,403518
21.01268,577977
21.01893,776212
21.02520,873254
21.03145,762087
21.03770,568004
21.04397,439619
21.05022,373731
21.05647,363539
21.06272,335557
21.06898,321910
21.07523,319959
21.08148,348539
21.08775,377803
21.09400,373323
21.10025,330323
21.10652,275761
21.11277,239605
21.11902,226064
21.12528,220514
21.13153,232391
21.13778,222244
21.14405,220193
21.15030,219252
21.15655,219733
21.16282,217295
21.16907,227863
21.17532,237093
21.18158,242928
21.18783,251812
21.19408,245067
21.20035,234917
21.20660,232235
21.21285,234896
21.21912,244447
21.22537,240054
21.23162,243993
21.23788,252005
21.24413,291327
21.25038,347365
21.25665,356285
21.26290,337527
21.26915,301962
21.27540,293227
21.28167,337613
21.28792,403481
21.29417,449431
21.30043,427361
21.30668,370088
21.31293,290921
21.31920,251759
21.32545,236252
21.33170,237702
21.33797,244503
21.34422,236767
21.35047,228589
21.35673,223765
21.36298,251487
21.36923,322198
21.37550,402299
21.38175,426315
21.38800,405103
21.39427,341889
21.40052,269012
21.40677,229674
21.41303,221193
21.41928,231306
21.42553,235206
21.43180,240778
21.43805,237543
21.44430,242107
21.45057,253739
21.45682,306737
21.46307,412274
21.46933,525672
21.47558,600820
21.48183,551095
21.48810,458699
21.49435,405182
21.50060,397362
21.50685,413075
21.51312,418795
21.51937,381317
21.52562,309624
21.53188,238211
21.53813,211843
21.54438,202733
21.55065,203172
21.55690,199869
21.56315,185851
21.56942,195953
21.57567,214559
21.58192,230888
21.58818,238398
21.59443,252356
21.60068,265884
21.60695,292460
21.61320,286134
21.61945,241812
21.62572,203924
21.63197,183674
21.63822,167467
21.64448,161216
21.65073,148413
21.65698,143918
21.66325,142306
21.66950,145092
21.67575,156823
21.68202,170185
21.68827,186320
21.69452,192859
21.70078,189042
21.70703,174604
21.71328,157161
21.71953,149881
21.72580,143656
21.73205,149755
21.73830,151093
21.74457,150473
21.75082,157696
21.75707,171464
21.76333,186614
21.76958,185944
21.77583,189685
21.78210,193297
21.78835,211700
21.79460,256353
21.80087,277912
21.80712,299475
21.81337,278271
21.81963,256259
21.82588,238746
21.83213,227916
21.83840,213141
21.84465,220097
21.85090,247895
21.85717,280287
21.86342,308214
21.86967,336847
21.87593,346700
21.88218,329556
21.88843,274548
21.89470,236428
21.90095,232530
21.90720,295900
21.91347,418270
21.91972,502133
21.92597,531038
21.93223,462598
21.93848,377618
21.94473,356731
21.95098,341312
21.95725,290548
21.96350,231110
21.96975,188487
21.97602,171459
21.98227,173231
21.98852,185471
21.99478,201682
22.00103,206503
22.00728,212321
22.01355,211219
22.01980,203858
22.02605,194133
22.03232,201099
22.03857,237388
22.04482,290015
22.05108,363663
22.05733,424254
22.06358,452401
22.06985,471717
22.07610,510011
22.08235,574210
22.08862,552652
22.09487,490865
22.10112,392048
22.10738,305145
22.11363,272771
22.11988,264588
22.12615,276501
22.13240,302495
22.13865,300699
22.14492,287806
22.15117,260183
22.15742,230521
22.16367,216998
22.16993,217014
22.17618,220514
22.18243,223947
22.18870,229050
22.19495,236432
22.20120,247885
22.20747,238474
22.21372,219864
22.21997,203126
22.22623,191546
22.23248,188610
22.23873,195933
22.24500,213262
22.25125,259820
22.25750,341584
22.26377,455065
22.27002,530875
22.27627,537073
22.28253,498014
22.28878,458428
22.29503,434196
22.30130,410049
22.30755,389490
22.31380,332193
22.32007,283914
22.32632,261345
22.33257,268242
22.33883,274486
22.34508,273984
22.35133,311889
22.35760,507408
22.36385,1006866
22.37010,1905088
22.37635,2481282
22.38262,2379080
22.38887,1641204
22.39512,854993
22.40138,445967
22.40763,296667
22.41388,259585
22.42015,255705
22.42640,264665
22.43265,289039
22.43892,331259
22.44517,389407
22.45142,477039
22.45768,580234
22.46393,728407
22.47018,853564
22.47645,810110
22.48270,661398
22.48895,485704
22.49522,370705
22.50147,323588
22.50772,296836
22.51398,284410
22.52023,262431
22.52648,248974
22.53275,242129
22.53900,282118
22.54525,364159
22.55152,515943
22.55777,648064
22.56402,671961
22.57028,618181
22.57653,515101
22.58278,406710
22.58905,340718
22.59530,306489
22.60155,276212
22.60780,262970
22.61407,259357
22.62032,267372
22.62657,275297
22.63283,267689
22.63908,260174
22.64533,256165
22.65160,242726
22.65785,242355
22.66410,235617
22.67037,244160
22.67662,256055
22.68287,281276
22.68913,304376
22.69538,306953
22.70163,304976
22.70790,269818
22.71415,240131
22.72040,227509
22.72667,218124
22.73292,222716
22.73917,224480
22.74543,231841
22.75168,243286
22.75793,245673
22.76420,246292
22.77045,255557
22.77670,273733
22.78297,333651
22.78922,590848
22.79547,1514130
22.80173,4203051
22.80798,8494598
22.81423,1.412437E+07
22.82048,1.821544E+07
22.82675,1.622645E+07
22.83300,9557887
22.83925,4016391
22.84552,1608576
22.85177,762586
22.85802,505639
22.86428,423436
22.87053,379046
22.87678,344299
22.88305,316093
22.88930,291170
22.89555,285062
22.90182,280272
22.90807,277828
22.91432,270600
22.92058,270422
22.92683,269356
22.93308,273940
22.93935,279498
22.94560,291891
22.95185,294174
22.95812,292516
22.96437,272291
22.97062,266121
22.97688,286366
22.98313,321657
22.98938,354755
22.99565,360296
23.00190,350050
23.00815,317204
23.01442,276289
23.02067,244830
23.02692,233676
23.03317,222869
23.03943,221626
23.04568,231607
23.05193,231622
23.05820,243990
23.06445,275226
23.07070,382073
23.07697,572948
23.08322,841167
23.08947,936442
23.09573,828036
23.10198,614035
23.10823,419962
23.11450,311828
23.12075,250218
23.12700,230426
23.13327,211796
23.13952,211986
23.14577,211035
23.15203,201272
23.15828,199729
23.16453,187562
23.17080,186357
23.17705,183325
23.18330,184453
23.18957,190651
23.19582,198216
23.20207,198109
23.20833,201893
23.21458,202033
23.22083,197421
23.22710,192655
23.23335,189738
23.23960,191569
23.24587,188493
23.25212,197565
23.25837,204906
23.26462,211450
23.27088,208063
23.27713,194084
23.28338,186305
23.28965,185851
23.29590,194924
23.30215,217451
23.30842,279599
23.31467,387621
23.32092,529865
23.32718,618331
23.33343,560188
23.33968,436732
23.34595,320039
23.35220,256160
23.35845,228494
23.36472,216046
23.37097,203376
23.37722,194176
23.38348,197126
23.38973,194169
23.39598,201741
23.40225,197434
23.40850,200074
23.41475,201806
23.42102,193438
23.42727,195736
23.43352,197531
23.43978,204781
23.44603,225667
23.45228,254249
23.45855,301009
23.46480,342781
23.47105,373977
23.47730,389486
23.48357,411000
23.48982,456709
23.49607,503381
23.50233,515285
23.50858,547034
23.51483,605125
23.52110,723940
23.52735,819392
23.53360,799685
23.53987,644756
23.54612,454588
23.55237,335328
23.55863,284211
23.56488,283502
23.57113,320292
23.57740,392162
23.58365,502734
23.58990,560254
23.59617,553605
23.60242,482369
23.60867,396576
23.61493,316963
23.62118,267889
23.62743,249838
23.63370,255600
23.63995,265228
23.64620,289145
23.65247,316256
23.65872,306992
23.66497,278323
23.67123,245755
23.67748,225896
23.68373,219735
23.68998,237817
23.69625,251872
23.70250,265092
23.70875,267203
23.71502,274902
23.72127,325290
23.72752,450495
23.73378,628296
23.74003,783872
23.74628,742196
23.75255,576829
23.75880,410038
23.76505,309933
23.77132,260966
23.77757,245077
23.78382,242829
23.79008,248940
23.79633,250142
23.80258,252384
23.80885,255032
23.81510,279069
23.82135,311633
23.82762,330577
23.83387,337492
23.84012,310542
23.84638,283600
23.85263,260460
23.85888,249463
23.86515,242126
23.87140,249759
23.87765,265662
23.88392,304914
23.89017,361133
23.89642,442813
23.90268,518927
23.90893,509725
23.91518,440417
23.92143,372001
23.92770,320711
23.93395,289546
23.94020,281446
23.94647,295262
23.95272,327303
23.95897,467337
23.96523,907573
23.97148,1948923
23.97773,4095274
23.98400,6484618
23.99025,1.001493E+07
23.99650,1.621436E+07
24.00277,2.217504E+07
24.00902,2.69678E+07
24.01527,2.732564E+07
24.02153,1.997815E+07
24.02778,1.048007E+07
24.03403,4503463
24.04030,2166213
24.04655,1323305
24.05280,971203
24.05907,777587
24.06532,652868
24.07157,582195
24.07783,577624
24.08408,586662
24.09033,579598
24.09660,595445
24.10285,755328
24.10910,1291854
24.11537,2687109
24.12162,4611071
24.12787,5975667
24.13412,5874423
24.14038,4419886
24.14663,2579894
24.15288,1431738
24.15915,840413
24.16540,590733
24.17165,495167
24.17792,468530
24.18417,487434
24.19042,575005
24.19668,746170
24.20293,1068046
24.20918,1913496
24.21545,4367447
24.22170,9312685
24.22795,1.684487E+07
24.23422,2.35065E+07
24.24047,3.146312E+07
24.24672,3.735418E+07
24.25298,4.002585E+07
24.25923,4.166908E+07
24.26548,4.216016E+07
24.27175,4.150766E+07
24.27800,4.126675E+07
24.28425,3.42483E+07
24.29052,1.049374E+07
24.29677,3241055
24.30302,1981174
24.30928,1543754
24.31553,1304983
24.32178,1145726
24.32805,1037964
24.33430,978756
24.34055,949920
24.34682,920608
24.35307,932765
24.35932,921354
24.36557,930973
24.37183,979805
24.37808,1059597
24.38433,1081335
24.39060,1095247
24.39685,997693
24.40310,908012
24.40937,822184
24.41562,764991
24.42187,728253
24.42813,744793
24.43438,857161
24.44063,1099001
24.44690,1465529
24.45315,1694725
24.45940,1560904
24.46567,1288686
24.47192,985028
24.47817,763714
24.48443,641735
24.49068,572948
24.49693,525833
24.50320,497488
24.50945,475852
24.51570,452669
24.52197,446414
24.52822,439998
24.53447,423049
24.54073,410399
24.54698,402550
24.55323,400279
24.55950,391386
24.56575,380417
24.57200,373166
24.57825,369311
24.58452,367099
24.59077,365833
24.59702,362394
24.60328,349419
24.60953,339991
24.61578,326249
24.62205,304124
24.62830,298389
24.63455,289225
24.64082,284453
24.64707,285730
24.65332,278682
24.65958,271787
24.66583,267934
24.67208,274133
24.67835,287567
24.68460,332942
24.69085,386764
24.69712,420264
24.70337,422162
24.70962,389511
24.71588,341658
24.72213,316207
24.72838,289256
24.73465,273854
24.74090,265390
24.74715,247248
24.75342,245714
24.75967,233626
24.76592,239405
24.77218,246039
24.77843,255322
24.78468,277421
24.79095,300013
24.79720,309971
24.80345,297742
24.80970,273614
24.81597,242906
24.82222,218908
24.82847,209029
24.83473,203837
24.84098,197688
24.84723,191925
24.85350,186144
24.85975,187006
24.86600,187965
24.87227,199334
24.87852,211457
24.88477,233955
24.89103,265923
24.89728,305163
24.90353,318360
24.90980,300592
24.91605,284460
24.92230,266152
24.92857,272984
24.93482,274492
24.94107,276094
24.94733,276660
24.95358,288794
24.95983,331990
24.96610,344205
24.97235,334019
24.97860,297612
24.98487,261785
24.99112,230799
24.99737,218627
25.00363,208907
25.00988,206814
25.01613,206605
25.02238,209794
25.02865,206133
25.03490,218270
25.04115,227592
25.04742,233101
25.05367,227988
25.05992,212090
25.06618,202256
25.07243,198782
25.07868,197939
25.08495,201497
25.09120,198471
25.09745,203865
25.10372,205533
25.10997,213728
25.11622,210954
25.12248,212919
25.12873,215425
25.13498,211089
25.14125,212267
25.14750,202043
25.15375,190412
25.16002,181159
25.16627,173792
25.17252,178494
25.17878,189551
25.18503,220034
25.19128,256386
25.19755,298637
25.20380,298388
25.21005,280750
25.21632,240285
25.22257,204151
25.22882,184289
25.23508,178787
25.24133,170401
25.24758,171204
25.25383,168805
25.26010,166011
25.26635,169969
25.27260,166194
25.27887,174334
25.28512,209712
25.29137,265062
25.29763,353126
25.30388,436651
25.31013,436720
25.31640,404377
25.32265,335453
25.32890,269342
25.33517,226447
25.34142,201042
25.34767,194444
25.35393,181819
25.36018,183436
25.36643,182262
25.37270,183196
25.37895,188392
25.38520,186396
25.39147,188260
25.39772,196563
25.40397,203947
25.41023,224696
25.41648,236052
25.42273,240341
25.42900,227891
25.43525,225621
25.44150,218734
25.44777,217942
25.45402,219820
25.46027,214701
25.46652,212815
25.47278,203189
25.47903,196164
25.48528,205114
25.49155,228494
25.49780,279579
25.50405,357745
25.51032,435459
25.51657,469518
25.52282,446465
25.52908,392612
25.53533,364350
25.54158,392547
25.54785,456801
25.55410,552596
25.56035,537003
25.56662,437122
25.57287,335846
25.57912,266209
25.58538,228936
25.59163,206880
25.59788,197669
25.60415,193499
25.61040,198696
25.61665,196261
25.62292,199237
25.62917,193213
25.63542,187427
25.64168,184971
25.64793,177947
25.65418,171340
25.66045,168008
25.66670,163724
25.67295,166509
25.67920,167776
25.68547,171781
25.69172,168401
25.69797,166834
25.70423,168148
25.71048,161696
25.71673,157568
25.72300,156097
25.72925,154982
25.73550,153562
25.74177,152493
25.74802,154986
25.75427,154620
25.76053,157300
25.76678,159331
25.77303,157827
25.77930,156261
25.78555,156905
25.79180,155937
25.79807,150426
25.80432,150153
25.81057,146146
25.81683,144258
25.82308,141774
25.82933,141025
25.83560,143093
25.84185,142585
25.84810,141532
25.85437,146637
25.86062,147937
25.86687,152489
25.87313,149590
25.87938,152888
25.88563,146182
25.89190,149012
25.89815,143083
25.90440,144564
25.91065,146796
25.91692,138956
25.92317,140861
25.92942,142145
25.93568,138832
25.94193,144632
25.94818,146286
25.95445,144613
25.96070,143163
25.96695,144803
25.97322,146665
25.97947,153006
25.98572,161102
25.99198,168529
25.99823,172774
26.00448,158695
26.01075,153038
26.01700,147112
26.02325,147630
26.02952,146121
26.03577,151901
26.04202,156345
26.04828,152726
26.05453,159849
26.06078,160617
26.06705,161232
26.07330,164647
26.07955,157131
26.08582,151389
26.09207,146069
26.09832,144869
26.10458,144286
26.11083,145321
26.11708,146927
26.12333,140555
26.12960,139991
26.13585,140731
26.14210,139013
26.14837,137511
26.15462,138064
26.16087,139893
26.16713,135210
26.17338,136917
26.17963,142565
26.18590,142556
26.19215,140836
26.19840,140822
26.20467,139765
26.21092,138495
26.21717,139207
26.22343,140731
26.22968,140916
26.23593,141371
26.24220,136112
26.24845,137553
26.25470,138863
26.26097,137131
26.26722,133675
26.27347,138082
26.27973,134982
26.28598,138823
26.29223,143079
26.29850,141995
26.30475,141043
26.31100,143012
26.31727,140385
26.32352,138939
26.32977,143188
26.33602,141011
26.34228,142973
26.34853,143716
26.35478,143341
26.36105,146001
26.36730,165024
26.37355,205998
26.37982,306879
26.38607,395480
26.39232,435806
26.39858,413600
26.40483,316732
26.41108,247300
26.41735,197071
26.42360,170327
26.42985,167747
26.43612,160573
26.44237,157243
26.44862,154518
26.45488,152128
26.46113,154565
26.46738,157192
26.47365,159298
26.47990,160834
26.48615,160678
26.49242,161997
26.49867,161312
26.50492,157697
26.51118,159433
26.51743,156181
26.52368,157418
26.52995,170274
26.53620,184296
26.54245,201357
26.54872,191630
26.55497,183010
26.56122,172389
26.56747,161235
26.57373,160665
26.57998,156348
26.58623,155488
26.59250,152658
26.59875,157025
26.60500,163519
26.61127,172345
26.61752,192829
26.62377,205342
26.63003,205277
26.63628,200783
26.64253,181608
26.64880,168850
26.65505,166384
26.66130,173931
26.66757,189811
26.67382,211510
26.68007,217303
26.68633,219941
26.69258,209890
26.69883,215605
26.70510,236343
26.71135,263067
26.71760,265108
26.72387,251636
26.73012,222581
26.73637,196183
26.74263,183737
26.74888,184204
26.75513,188692
26.76140,229713
26.76765,295441
26.77390,386557
26.78015,443540
26.78642,426830
26.79267,372969
26.79892,328737
26.80518,300262
26.81143,284633
26.81768,278029
26.82395,284467
26.83020,359976
26.83645,532129
26.84272,756230
26.84897,915100
26.85522,843548
26.86148,638283
26.86773,446303
26.87398,328215
26.88025,288927
26.88650,292341
26.89275,348243
26.89902,423642
26.90527,556374
26.91152,918082
26.91778,1924682
26.92403,4430253
26.93028,8541946
26.93655,1.38931E+07
26.94280,2.093449E+07
26.94905,2.553975E+07
26.95532,2.324527E+07
26.96157,1.449242E+07
26.96782,6450265
26.97408,3182292
26.98033,1898450
26.98658,1249039
26.99283,827697
26.99910,604795
27.00535,490011
27.01160,481084
27.01787,595530
27.02412,857212
27.03037,1326919
27.03663,1577935
27.04288,1507019
27.04913,1180308
27.05540,826589
27.06165,600951
27.06790,509791
27.07417,455782
27.08042,408244
27.08667,374441
27.09293,330644
27.09918,305450
27.10543,282702
27.11170,268630
27.11795,259443
27.12420,262636
27.13047,290215
27.13672,364900
27.14297,456541
27.14923,518752
27.15548,514491
27.16173,455249
27.16800,371288
27.17425,304318
27.18050,288844
27.18677,284640
27.19302,277734
27.19927,257685
27.20553,249066
27.21178,248881
27.21803,251218
27.22428,254218
27.23055,249190
27.23680,240405
27.24305,240290
27.24932,248275
27.25557,252711
27.26182,261382
27.26808,273808
27.27433,258341
27.28058,243176
27.28685,229921
27.29310,230602
27.29935,225129
27.30562,219823
27.31187,221206
27.31812,220175
27.32438,218722
27.33063,218401
27.33688,222753
27.34315,222252
27.34940,222642
27.35565,225921
27.36192,227584
27.36817,231019
27.37442,228098
27.38068,227722
27.38693,229828
27.39318,226722
27.39945,229670
27.40570,253950
27.41195,289909
27.41822,317562
27.42447,342580
27.43072,316696
27.43697,288267
27.44323,257674
27.44948,238879
27.45573,224301
27.46200,211754
27.46825,205722
27.47450,200403
27.48077,201093
27.48702,205701
27.49327,205844
27.49953,204604
27.50578,201944
27.51203,202612
27.51830,194888
27.52455,193228
27.53080,194905
27.53707,198885
27.54332,204633
27.54957,200672
27.55583,201767
27.56208,201205
27.56833,196307
27.57460,190862
27.58085,188950
27.58710,192930
27.59337,193200
27.59962,190188
27.60587,185621
27.61213,194834
27.61838,190104
27.62463,197045
27.63090,195521
27.63715,192367
27.64340,197631
27.64967,200616
27.65592,196870
27.66217,197595
27.66842,193945
27.67468,197229
27.68093,194245
27.68718,202940
27.69345,201327
27.69970,203092
27.70595,193875
27.71222,203349
27.71847,205138
27.72472,216704
27.73098,218847
27.73723,218029
27.74348,215090
27.74975,217905
27.75600,208904
27.76225,211774
27.76852,213814
27.77477,215832
27.78102,215094
27.78728,210908
27.79353,202152
27.79978,204813
27.80605,204077
27.81230,198753
27.81855,199371
27.82482,198212
27.83107,202319
27.83732,196904
27.84358,202717
27.84983,207232
27.85608,213714
27.86235,224057
27.86860,235875
27.87485,242617
27.88110,241991
27.88737,226909
27.89362,217675
27.89987,209729
27.90613,214832
27.91238,216855
27.91863,205724
27.92490,209832
27.93115,205442
27.93740,205165
27.94367,204187
27.94992,200885
27.95617,202402
27.96243,202677
27.96868,209483
27.97493,206119
27.98120,205815
27.98745,217595
27.99370,217398
27.99997,221810
28.00622,226754
28.01247,216070
28.01873,221185
28.02498,223341
28.03123,216445
28.03750,206696
28.04375,207869
28.05000,210109
28.05627,204598
28.06252,205505
28.06877,206743
28.07503,203455
28.08128,208530
28.08753,204169
28.09380,208349
28.10005,204468
28.10630,209237
28.11255,211532
28.11882,207633
28.12507,206725
28.13132,216341
28.13758,210857
28.14383,207308
28.15008,213644
28.15635,201064
28.16260,202193
28.16885,205612
28.17512,211815
28.18137,202895
28.18762,202525
28.19388,202706
28.20013,207838
28.20638,203307
28.21265,205583
28.21890,205228
28.22515,214171
28.23142,207655
28.23767,211677
28.24392,209787
28.25018,209291
28.25643,205753
28.26268,204005
28.26895,209950
28.27520,212929
28.28145,211018
28.28772,209907
28.29397,216428
28.30022,216404
28.30648,221209
28.31273,216443
28.31898,221983
28.32523,219711
28.33150,224085
28.33775,225755
28.34400,232592
28.35027,240086
28.35652,245683
28.36277,245491
28.36903,248551
28.37528,261628
28.38153,265568
28.38780,265990
28.39405,276069
28.40030,277638
28.40657,284588
28.41282,285199
28.41907,286796
28.42533,289994
28.43158,295498
28.43783,303775
28.44410,301637
28.45035,285850
28.45660,284361
28.46287,287556
28.46912,282801
28.47537,278542
28.48163,278451
28.48788,268340
28.49413,267988
28.50040,266136
28.50665,258471
28.51290,256224
28.51917,249642
28.52542,242672
28.53167,239696
28.53793,236087
28.54418,238114
28.55043,238125
28.55668,232798
28.56295,223663
28.56920,226837
28.57545,225616
28.58172,220868
28.58797,223512
28.59422,224183
28.60048,222733
28.60673,223238
28.61298,214599
28.61925,221686
28.62550,219207
28.63175,213754
28.63802,220161
28.64427,217773
28.65052,212920
28.65678,222650
28.66303,221894
28.66928,212544
28.67555,213894
28.68180,215944
28.68805,210203
28.69432,210285
28.70057,213236
28.70682,215540
28.71308,211094
28.71933,215433
28.72558,213370
28.73185,218398
28.73810,214801
28.74435,216296
28.75062,216309
28.75687,218732
28.76312,217420
28.76937,216370
28.77563,213844
28.78188,211426
28.78813,206061
28.79440,205879
28.80065,205599
28.80690,205510
28.81317,204176
28.81942,211822
28.82567,206068
28.83193,207033
28.83818,206071
28.84443,207571
28.85070,210384
28.85695,203451
28.86320,205746
28.86947,207521
28.87572,203600
28.88197,205205
28.88823,207673
28.89448,205054
28.90073,202822
28.90700,201855
28.91325,200647
28.91950,203131
28.92577,199323
28.93202,209755
28.93827,199071
28.94453,208582
28.95078,199480
28.95703,203671
28.96330,205071
28.96955,207680
28.97580,206102
28.98205,198009
28.98832,197650
28.99457,200504
29.00082,203384
29.00708,199547
29.01333,209187
29.01958,211364
29.02585,206415
29.03210,204985
29.03835,207085
29.04462,206752
29.05087,206015
29.05712,199081
29.06338,203774
29.06963,203239
29.07588,194382
29.08215,200890
29.08840,204240
29.09465,197624
29.10092,202382
29.10717,193536
29.11342,195337
29.11968,196188
29.12593,198884
29.13218,197986
29.13845,197833
29.14470,199082
29.15095,196862
29.15722,199457
29.16347,197476
29.16972,195706
29.17598,193134
29.18223,200069
29.18848,198064
29.19475,197984
29.20100,203161
29.20725,201931
29.21350,192445
29.21977,195305
29.22602,203349
29.23227,201793
29.23853,214048
29.24478,214615
29.25103,225301
29.25730,219789
29.26355,213736
29.26980,210186
29.27607,211729
29.28232,204502
29.28857,207671
29.29483,198461
29.30108,204982
29.30733,200197
29.31360,196522
29.31985,201616
29.32610,196177
29.33237,198719
29.33862,196689
29.34487,200486
29.35113,200172
29.35738,197981
29.36363,201802
29.36990,194849
29.37615,202286
29.38240,193747
29.38867,195627
29.39492,193084
29.40117,202604
29.40743,193685
29.41368,192750
29.41993,190435
29.42618,204105
29.43245,193417
29.43870,198670
29.44495,199926
29.45122,193797
29.45747,193586
29.46372,199936
29.46998,193305
29.47623,197686
29.48248,189585
29.48875,192151
29.49500,201004
29.50125,194916
29.50752,191940
29.51377,199671
29.52002,191212
29.52628,191136
29.53253,194834
29.53878,189973
29.54505,193380
29.55130,192267
29.55755,189164
29.56382,190108
29.57007,195087
29.57632,197222
29.58258,197582
29.58883,194013
29.59508,195704
29.60135,195548
29.60760,198797
29.61385,201135
29.62012,195021
29.62637,195902
29.63262,189663
29.63887,194619
29.64513,188669
29.65138,193000
29.65763,189140
29.66390,195684
29.67015,190156
29.67640,189277
29.68267,197855
29.68892,197115
29.69517,189454
29.70143,189487
29.70768,189182
29.71393,191476
29.72020,194305
29.72645,186201
29.73270,194024
29.73897,184256
29.74522,191683
29.75147,192932
29.75773,193649
29.76398,184522
29.77023,193788
29.77650,186963
29.78275,184848
29.78900,191304
29.79527,187063
29.80152,188354
29.80777,192326
29.81403,185912
29.82028,191331
29.82653,188270
29.83280,190287
29.83905,185954
29.84530,187778
29.85157,189209
29.85782,190592
29.86407,191606
29.87032,182919
29.87658,182160
29.88283,186611
29.88908,185520
29.89535,189037
29.90160,187335
29.90785,186790
29.91412,192072
29.92037,193796
29.92662,190846
29.93288,192909
29.93913,192171
29.94538,191505
29.95165,192405
29.95790,193921
29.96415,180154
29.97042,181939
29.97667,183128
29.98292,184507
29.98918,184885
29.99543,185286
30.00168,187323
30.00795,190273
30.01420,184405
30.02045,182858
30.02672,185375
30.03297,180536
30.03922,183294
30.04548,182741
30.05173,184919
30.05798,187686
30.06425,187553
30.07050,185564
30.07675,180579
30.08300,189167
30.08927,183299
30.09552,182570
30.10177,185072
30.10803,185685
30.11428,183312
30.12053,182150
30.12680,184673
30.13305,181069
30.13930,183578
30.14557,180609
30.15182,181804
30.15807,186396
30.16433,180488
30.17058,182111
30.17683,178137
30.18310,182512
30.18935,187674
30.19560,185426
30.20187,183076
30.20812,178694
30.21437,182382
30.22063,182083
30.22688,180537
30.23313,185321
30.23940,182178
30.24565,180767
30.25190,178702
30.25817,181520
30.26442,179784
30.27067,182384
30.27693,179446
30.28318,183592
30.28943,185672
30.29570,188903
30.30195,185484
30.30820,187881
30.31445,182689
30.32072,185368
30.32697,185700
30.33322,177675
30.33948,181477
30.34573,182071
30.35198,182314
30.35825,184573
30.36450,179645
30.37075,178098
30.37702,177599
30.38327,178193
30.38952,178815
30.39578,180857
30.40203,179588
30.40828,176624
30.41455,179473
30.42080,183019
30.42705,179375
30.43332,179557
30.43957,181276
30.44582,175705
30.45208,181648
30.45833,178872
30.46458,179397
30.47085,185607
30.47710,182359
30.48335,177415
30.48962,177294
30.49587,177040
30.50212,176183
30.50838,177522
30.51463,174481
30.52088,178199
30.52713,180998
30.53340,181271
30.53965,180674
30.54590,175322
30.55217,180678
30.55842,174328
30.56467,173715
30.57093,176864
30.57718,175729
30.58343,172731
30.58970,175176
30.59595,179737
30.60220,174499
30.60847,175016
30.61472,173957
30.62097,181545
30.62723,178677
30.63348,177668
30.63973,176652
30.64600,174729
30.65225,172996
30.65850,173464
30.66477,173435
30.67102,180762
30.67727,185520
30.68353,183394
30.68978,181578
30.69603,188393
30.70230,191661
30.70855,203245
30.71480,204247
30.72107,198972
30.72732,203091
30.73357,196372
30.73983,195674
30.74608,187673
30.75233,184460
30.75858,184912
30.76485,181594
30.77110,176253
30.77735,181504
30.78362,178468
30.78987,175725
30.79612,177362
30.80238,181356
30.80863,184876
30.81488,179096
30.82115,179025
30.82740,179022
30.83365,178012
30.83992,176459
30.84617,174167
30.85242,175605
30.85868,171292
30.86493,172810
30.87118,169279
30.87745,175548
30.88370,178454
30.88995,179829
30.89622,175873
30.90247,173460
30.90872,173901
30.91498,173694
30.92123,174960
30.92748,175121
30.93375,179776
30.94000,180109
30.94625,182077
30.95252,174818
30.95877,173285
30.96502,176158
30.97127,174452
30.97753,180204
30.98378,171114
30.99003,176565
30.99630,175220
31.00255,182967
31.00880,180131
31.01507,180523
31.02132,184933
31.02757,183718
31.03383,184867
31.04008,186468
31.04633,178492
31.05260,175688
31.05885,175054
31.06510,174712
31.07137,171952
31.07762,170326
31.08387,174303
31.09013,177882
31.09638,172136
31.10263,172323
31.10890,171067
31.11515,171115
31.12140,171696
31.12767,172823
31.13392,169760
31.14017,172969
31.14643,169217
31.15268,173638
31.15893,172072
31.16520,170415
31.17145,168752
31.17770,176550
31.18397,173842
31.19022,173228
31.19647,168636
31.20272,172332
31.20898,169643
31.21523,173424
31.22148,172245
31.22775,166975
31.23400,166477
31.24025,176753
31.24652,169507
31.25277,172664
31.25902,169237
31.26528,166614
31.27153,173212
31.27778,164824
31.28405,170958
31.29030,164891
31.29655,164867
31.30282,176497
31.30907,167917
31.31532,171645
31.32158,167067
31.32783,169123
31.33408,171004
31.34035,171345
31.34660,174278
31.35285,172930
31.35912,174198
31.36537,174909
31.37162,168271
31.37788,168557
31.38413,166095
31.39038,167676
31.39665,167487
31.40290,167720
31.40915,175370
31.41540,166296
31.42167,171340
31.42792,169721
31.43417,168139
31.44043,166510
31.44668,178360
31.45293,177962
31.45920,170467
31.46545,173176
31.47170,168376
31.47797,173696
31.48422,166359
31.49047,169114
31.49673,170999
31.50298,167572
31.50923,169115
31.51550,168502
31.52175,170513
31.52800,171142
31.53427,166138
31.54052,168538
31.54677,169551
31.55303,167862
31.55928,168046
31.56553,173763
31.57180,163001
31.57805,174555
31.58430,167035
31.59057,164614
31.59682,172052
31.60307,167184
31.60933,167244
31.61558,167334
31.62183,164557
31.62808,166833
31.63435,164037
31.64060,160832
31.64685,169735
31.65312,162170
31.65937,165530
31.66562,162103
31.67188,164423
31.67813,163976
31.68438,168227
31.69065,165721
31.69690,166696
31.70315,163130
31.70942,169399
31.71567,161786
31.72192,170952
31.72818,166446
31.73443,164668
31.74068,165710
31.74695,164786
31.75320,163950
31.75945,167065
31.76572,167897
31.77197,162961
31.77822,163867
31.78448,161380
31.79073,164560
31.79698,166990
31.80325,166727
31.80950,168231
31.81575,162365
31.82202,166985
31.82827,161788
31.83452,164444
31.84078,168119
31.84703,161984
31.85328,160701
31.85953,167597
31.86580,164819
31.87205,164922
31.87830,161560
31.88457,165804
31.89082,161663
31.89707,166552
31.90333,163324
31.90958,157988
31.91583,164172
31.92210,162425
31.92835,161645
31.93460,166589
31.94087,163074
31.94712,161034
31.95337,159638
31.95963,164576
31.96588,164078
31.97213,159339
31.97840,158755
31.98465,160641
31.99090,159843
31.99717,163706
32.00342,159487
32.00967,160475
32.01593,159128
32.02218,160637
32.02843,163231
32.03470,165170
32.04095,166792
32.04720,166020
32.05347,159971
32.05972,162858
32.06597,167849
32.07222,159138
32.07848,159106
32.08473,160828
32.09098,162401
32.09725,165827
32.10350,159046
32.10975,160942
32.11602,158101
32.12227,159580
32.12852,159704
32.13478,159710
32.14103,164858
32.14728,163580
32.15355,161828
32.15980,157984
32.16605,159896
32.17232,167605
32.17857,161607
32.18482,157596
32.19108,161492
32.19733,157748
32.20358,159755
32.20985,160515
32.21610,158065
32.22235,159730
32.22862,162604
32.23487,157739
32.24112,162017
32.24738,161415
32.25363,157709
32.25988,165345
32.26615,160040
32.27240,162325
32.27865,161336
32.28490,160720
32.29117,160977
32.29742,157855
32.30367,159483
32.30993,160826
32.31618,160904
32.32243,156527
32.32870,160098
32.33495,159775
32.34120,157991
32.34747,157121
32.35372,158672
32.35997,155188
32.36623,159510
32.37248,164740
32.37873,155298
32.38500,154265
32.39125,157920
32.39750,157724
32.40377,157355
32.41002,155142
32.41627,158219
32.42253,157281
32.42878,159552
32.43503,157416
32.44130,156992
32.44755,153213
32.45380,155889
32.46007,159077
32.46632,157946
32.47257,160699
32.47883,156447
32.48508,153217
32.49133,158197
32.49760,157805
32.50385,152869
32.51010,155669
32.51635,158181
32.52262,154675
32.52887,155959
32.53512,157347
32.54138,160808
32.54763,161560
32.55388,163559
32.56015,156853
32.56640,152215
32.57265,160776
32.57892,159763
32.58517,153612
32.59142,154655
32.59768,155408
32.60393,152412
32.61018,159941
32.61645,156656
32.62270,154301
32.62895,156408
32.63522,159647
32.64147,156014
32.64772,153716
32.65398,156390
32.66023,151837
32.66648,155193
32.67275,155547
32.67900,156874
32.68525,157387
32.69152,155432
32.69777,151483
32.70402,155600
32.71028,155391
32.71653,154969
32.72278,159294
32.72903,152379
32.73530,152440
32.74155,156797
32.74780,152388
32.75407,153780
32.76032,160699
32.76657,156828
32.77283,154600
32.77908,156620
32.78533,152415
32.79160,152231
32.79785,156011
32.80410,151443
32.81037,152765
32.81662,152391
32.82287,150265
32.82913,159175
32.83538,150805
32.84163,156010
32.84790,157490
32.85415,151662
32.86040,151885
32.86667,151072
32.87292,150424
32.87917,157808
32.88543,152933
32.89168,150584
32.89793,150897
32.90420,152720
32.91045,158621
32.91670,158184
32.92297,151145
32.92922,155023
32.93547,151686
32.94173,153016
32.94798,152551
32.95423,150701
32.96048,153257
32.96675,150416
32.97300,154511
32.97925,150473
32.98552,154263
32.99177,149861
32.99802,154550
33.00428,149352
33.01053,151976
33.01678,157180
33.02305,153346
33.02930,153776
33.03555,151151
33.04182,153181
33.04807,152859
33.05432,153398
33.06058,149099
33.06683,149867
33.07308,148065
33.07935,146812
33.08560,151270
33.09185,147926
33.09812,148935
33.10437,151542
33.11062,153647
33.11688,152314
33.12313,147740
33.12938,154302
33.13565,148387
33.14190,155594
33.14815,154177
33.15442,154946
33.16067,153398
33.16692,155148
33.17317,159572
33.17943,160966
33.18568,161592
33.19193,160597
33.19820,167798
33.20445,165697
33.21070,162367
33.21697,161642
33.22322,161331
33.22947,161974
33.23573,155858
33.24198,154949
33.24823,154072
33.25450,147248
33.26075,151351
33.26700,154899
33.27327,150477
33.27952,154710
33.28577,156708
33.29203,151868
33.29828,150006
33.30453,154292
33.31080,151987
33.31705,149300
33.32330,151497
33.32957,148725
33.33582,153351
33.34207,156070
33.34833,153030
33.35458,155210
33.36083,145445
33.36710,154954
33.37335,151685
33.37960,150028
33.38587,156109
33.39212,150940
33.39837,155014
33.40462,151360
33.41088,150792
33.41713,149976
33.42338,155888
33.42965,153683
33.43590,152897
33.44215,156856
33.44842,154358
33.45467,148588
33.46092,147380
33.46718,147768
33.47343,150355
33.47968,150666
33.48595,149135
33.49220,146412
33.49845,147857
33.50472,151959
33.51097,151942
33.51722,150561
33.52348,147262
33.52973,153258
33.53598,149056
33.54225,147603
33.54850,148588
33.55475,145948
33.56102,148327
33.56727,145015
33.57352,145750
33.57978,147986
33.58603,153048
33.59228,151201
33.59855,147853
33.60480,145843
33.61105,148391
33.61730,142464
33.62357,149423
33.62982,148053
33.63607,147976
33.64233,147621
33.64858,145506
33.65483,143136
33.66110,150921
33.66735,143255
33.67360,145281
33.67987,147328
33.68612,144744
33.69237,144005
33.69863,145749
33.70488,149023
33.71113,144465
33.71740,146402
33.72365,147611
33.72990,145024
33.73617,144614
33.74242,142718
33.74867,145690
33.75493,145527
33.76118,144923
33.76743,145611
33.77370,146556
33.77995,146129
33.78620,149096
33.79247,148942
33.79872,149359
33.80497,143556
33.81123,150314
33.81748,142943
33.82373,144246
33.83000,143750
33.83625,140933
33.84250,143995
33.84875,143510
33.85502,145937
33.86127,144205
33.86752,145920
33.87378,140021
33.88003,141952
33.88628,142868
33.89255,142548
33.89880,141710
33.90505,143246
33.91132,146546
33.91757,143621
33.92382,147163
33.93008,144921
33.93633,147087
33.94258,142845
33.94885,146167
33.95510,142613
33.96135,146216
33.96762,146455
33.97387,143949
33.98012,139758
33.98638,144560
33.99263,146305
33.99888,142798
34.00515,144226
34.01140,140696
34.01765,143510
34.02392,143405
34.03017,145442
34.03642,140536
34.04268,142675
34.04893,144095
34.05518,143923
34.06143,142768
34.06770,142201
34.07395,139937
34.08020,144606
34.08647,146591
34.09272,147926
34.09897,148417
34.10523,141590
34.11148,141063
34.11773,139999
34.12400,139093
34.13025,144852
34.13650,138571
34.14277,140834
34.14902,140120
34.15527,142828
34.16153,143552
34.16778,144461
34.17403,144235
34.18030,139393
34.18655,145136
34.19280,148358
34.19907,141312
34.20532,142217
34.21157,140903
34.21783,140809
34.22408,141311
34.23033,142713
34.23660,137105
34.24285,143980
34.24910,142743
34.25537,143372
34.26162,145181
34.26787,147060
34.27412,138800
34.28038,145654
34.28663,139431
34.29288,144504
34.29915,142558
34.30540,138550
34.31165,141434
34.31792,142608
34.32417,146299
34.33042,142349
34.33668,141653
34.34293,138997
34.34918,144518
34.35545,138603
34.36170,142688
34.36795,140683
34.37422,140996
34.38047,139145
34.38672,139731
34.39298,138694
34.39923,139313
34.40548,139429
34.41175,139728
34.41800,146041
34.42425,137263
34.43052,143343
34.43677,138445
34.44302,144398
34.44928,138800
34.45553,139885
34.46178,137639
34.46805,140094
34.47430,139335
34.48055,139812
34.48682,141321
34.49307,139005
34.49932,141022
34.50557,137506
34.51183,139992
34.51808,138616
34.52433,137750
34.53060,138496
34.53685,137262
34.54310,139984
34.54937,141667
34.55562,136347
34.56187,137091
34.56813,139247
34.57438,135027
34.58063,141812
34.58690,141141
34.59315,142041
34.59940,136957
34.60567,140249
34.61192,142159
34.61817,143545
34.62443,140645
34.63068,136524
34.63693,139631
34.64320,139129
34.64945,137322
34.65570,139235
34.66197,144499
34.66822,136045
34.67447,138487
34.68073,136829
34.68698,138925
34.69323,138627
34.69950,137887
34.70575,141886
34.71200,139131
34.71825,143112
34.72452,140735
34.73077,142437
34.73702,139531
34.74328,138288
34.74953,138485
34.75578,138448
34.76205,135016
34.76830,139368
34.77455,135990
34.78082,137207
34.78707,138314
34.79332,138785
34.79958,136260
34.80583,136151
34.81208,140967
34.81835,137091
34.82460,134894
34.83085,135981
34.83712,134669
34.84337,137173
34.84962,139876
34.85588,138882
34.86213,136054
34.86838,135445
34.87465,141512
34.88090,142034
34.88715,135663
34.89342,135198
34.89967,138816
34.90592,133497
34.91218,132809
34.91843,134166
34.92468,136022
34.93093,141126
34.93720,135951
34.94345,137032
34.94970,137604
34.95597,134288
34.96222,135320
34.96847,139540
34.97473,141067
34.98098,135015
34.98723,135190
34.99350,140065
34.99975,138198
35.00600,139566
35.01227,135403
35.01852,133524
35.02477,137043
35.03103,140343
35.03728,132861
35.04353,132507
35.04980,138117
35.05605,135976
35.06230,140873
35.06857,140881
35.07482,140709
35.08107,133688
35.08733,135086
35.09358,138201
35.09983,138504
35.10610,134914
35.11235,136067
35.11860,134974
35.12487,133494
35.13112,137043
35.13737,136041
35.14363,132337
35.14988,134406
35.15613,134887
35.16238,134542
35.16865,138174
35.17490,136052
35.18115,140204
35.18742,134386
35.19367,131636
35.19992,135140
35.20618,136781
35.21243,134178
35.21868,136271
35.22495,133471
35.23120,138978
35.23745,135779
35.24372,134412
35.24997,132838
35.25622,135616
35.26248,136794
35.26873,136219
35.27498,136049
35.28125,129954
35.28750,136083
35.29375,138111
35.30002,133073
35.30627,135792
35.31252,132944
35.31878,137705
35.32503,136558
35.33128,135966
35.33755,133799
35.34380,136105
35.35005,134589
35.35632,132096
35.36257,134098
35.36882,133792
35.37507,131338
35.38133,131919
35.38758,133328
35.39383,133385
35.40010,130784
35.40635,131626
35.41260,131834
35.41887,131176
35.42512,131802
35.43137,135754
35.43763,134513
35.44388,134120
35.45013,131937
35.45640,132558
35.46265,128350
35.46890,134648
35.47517,135034
35.48142,133883
35.48767,134293
35.49393,136168
35.50018,130300
35.50643,134759
35.51270,129232
35.51895,134213
35.52520,133058
35.53147,135000
35.53772,129272
35.54397,136286
35.55023,127439
35.55648,130947
35.56273,133569
35.56900,131160
35.57525,129318
35.58150,128816
35.58777,131984
35.59402,132828
35.60027,133742
35.60652,132830
35.61278,131640
35.61903,133639
35.62528,139227
35.63155,135279
35.63780,138057
35.64405,138066
35.65032,130259
35.65657,140011
35.66282,132846
35.66908,132266
35.67533,133446
35.68158,132363
35.68785,128224
35.69410,131902
35.70035,133979
35.70662,132110
35.71287,132665
35.71912,129869
35.72538,136634
35.73163,130643
35.73788,130573
35.74415,131509
35.75040,133787
35.75665,129077
35.76292,128626
35.76917,131186
35.77542,134733
35.78168,129126
35.78793,130614
35.79418,127069
35.80045,128963
35.80670,131300
35.81295,129878
35.81920,134094
35.82547,128551
35.83172,132676
35.83797,136751
35.84423,128749
35.85048,133742
35.85673,130992
35.86300,131989
35.86925,131903
35.87550,128571
35.88177,129669
35.88802,129222
35.89427,129965
35.90053,130997
35.90678,127193
35.91303,130371
35.91930,135763
35.92555,127793
35.93180,130073
35.93807,128991
35.94432,132642
35.95057,129437
35.95683,133144
35.96308,132135
35.96933,128916
35.97560,132272
35.98185,125141
35.98810,129868
35.99437,125083
36.00062,132610
36.00687,127742
36.01313,130633
36.01938,128373
36.02563,129884
36.03190,128120
36.03815,127848
36.04440,130554
36.05065,131286
36.05692,128421
36.06317,128032
36.06942,128516
36.07568,127015
36.08193,131060
36.08818,131115
36.09445,132656
36.10070,128348
36.10695,130945
36.11322,127294
36.11947,125124
36.12572,131142
36.13198,130500
36.13823,129676
36.14448,128254
36.15075,130236
36.15700,132809
36.16325,128014
36.16952,128932
36.17577,127060
36.18202,126246
36.18828,132010
36.19453,125658
36.20078,127589
36.20705,127537
36.21330,131179
36.21955,131487
36.22582,129581
36.23207,129900
36.23832,128762
36.24458,128689
36.25083,129964
36.25708,132777
36.26333,132499
36.26960,140908
36.27585,142437
36.28210,149462
36.28837,156990
36.29462,165744
36.30087,175254
36.30713,177095
36.31338,187418
36.31963,200372
36.32590,207998
36.33215,214553
36.33840,219159
36.34467,227050
36.35092,232478
36.35717,229586
36.36343,224029
36.36968,218518
36.37593,214247
36.38220,214592
36.38845,203380
36.39470,195574
36.40097,183473
36.40722,179778
36.41347,171582
36.41973,167314
36.42598,159154
36.43223,153694
36.43850,149733
36.44475,148616
36.45100,148075
36.45727,144857
36.46352,141597
36.46977,138715
36.47603,139817
36.48228,136364
36.48853,136710
36.49478,137970
36.50105,140726
36.50730,133442
36.51355,136027
36.51982,139238
36.52607,133503
36.53232,138806
36.53858,134290
36.54483,139302
36.55108,133720
36.55735,135017
36.56360,132915
36.56985,137292
36.57612,132581
36.58237,130528
36.58862,136023
36.59488,137895
36.60113,133085
36.60738,133918
36.61365,133097
36.61990,132803
36.62615,132557
36.63242,133842
36.63867,132425
36.64492,132779
36.65118,135684
36.65743,132789
36.66368,130178
36.66995,129525
36.67620,135170
36.68245,130890
36.68872,128275
36.69497,131214
36.70122,124756
36.70747,131547
36.71373,132544
36.71998,128292
36.72623,130027
36.73250,129838
36.73875,129648
36.74500,131374
36.75127,131454
36.75752,127723
36.76377,127265
36.77003,128956
36.77628,126876
36.78253,127576
36.78880,126299
36.79505,127872
36.80130,127318
36.80757,126379
36.81382,128621
36.82007,127752
36.82633,131103
36.83258,127974
36.83883,134738
36.84510,129196
36.85135,125776
36.85760,125382
36.86387,127970
36.87012,126568
36.87637,126122
36.88263,124996
36.88888,126653
36.89513,128418
36.90140,124848
36.90765,126201
36.91390,132101
36.92015,126107
36.92642,124835
36.93267,129178
36.93892,126319
36.94518,122970
36.95143,127371
36.95768,124481
36.96395,126845
36.97020,126540
36.97645,128934
36.98272,123935
36.98897,123627
36.99522,125349
37.00148,127339
37.00773,130348
37.01398,121456
37.02025,125691
37.02650,126025
37.03275,129519
37.03902,127388
37.04527,124645
37.05152,126498
37.05778,122629
37.06403,130117
37.07028,127052
37.07655,129529
37.08280,128310
37.08905,128522
37.09532,129784
37.10157,124940
37.10782,124829
37.11408,124454
37.12033,127171
37.12658,128340
37.13285,128859
37.13910,125975
37.14535,124348
37.15160,123395
37.15787,125401
37.16412,127409
37.17037,127453
37.17663,128517
37.18288,124601
37.18913,124539
37.19540,124023
37.20165,125628
37.20790,127505
37.21417,124441
37.22042,124166
37.22667,124445
37.23293,122063
37.23918,124028
37.24543,125062
37.25170,122693
37.25795,124131
37.26420,121000
37.27047,121450
37.27672,124998
37.28297,128744
37.28923,123513
37.29548,123113
37.30173,126709
37.30800,121086
37.31425,124220
37.32050,127739
37.32677,124571
37.33302,123517
37.33927,121638
37.34553,122695
37.35178,124799
37.35803,125206
37.36428,122939
37.37055,123757
37.37680,122863
37.38305,127651
37.38932,124057
37.39557,121387
37.40182,122545
37.40808,122828
37.41433,121237
37.42058,122838
37.42685,120659
37.43310,124737
37.43935,122653
37.44562,118960
37.45187,121766
37.45812,125886
37.46438,117563
37.47063,119978
37.47688,124011
37.48315,124002
37.48940,122567
