D:\MassHunter\GCMS\1\data\metastasis_lineages_3replicates_3runs_10302020\ethyl_acetate_run2_10302020.D Fri Oct 30 23:31:50 2020
Start of data points
5.99343,31822
5.99970,28494
6.00595,31824
6.01220,30856
6.01847,29191
6.02472,28564
6.03097,27547
6.03723,26742
6.04348,27153
6.04973,27711
6.05600,26564
6.06225,27985
6.06850,25887
6.07477,25072
6.08102,26223
6.08727,26522
6.09353,26708
6.09978,26278
6.10603,25377
6.11230,27142
6.11855,27294
6.12480,27869
6.13107,26553
6.13732,26222
6.14357,26093
6.14983,26367
6.15608,30062
6.16233,33573
6.16860,32864
6.17485,28732
6.18110,25857
6.18737,25055
6.19362,23652
6.19987,25635
6.20612,23542
6.21238,24789
6.21863,22189
6.22488,22464
6.23115,23157
6.23740,23988
6.24365,23789
6.24992,23967
6.25617,24637
6.26242,26321
6.26868,38796
6.27493,73783
6.28118,145770
6.28745,202235
6.29370,198393
6.29995,135869
6.30622,96673
6.31247,76055
6.31872,64741
6.32498,60611
6.33123,55252
6.33748,51395
6.34375,48678
6.35000,49385
6.35625,44260
6.36252,43301
6.36877,39589
6.37502,40832
6.38128,39282
6.38753,39150
6.39378,41153
6.40005,41029
6.40630,40547
6.41255,37918
6.41880,36436
6.42507,34156
6.43132,36526
6.43757,34183
6.44383,31581
6.45008,31235
6.45633,31813
6.46260,30517
6.46885,31208
6.47510,30652
6.48137,34593
6.48762,33568
6.49387,36273
6.50013,39019
6.50638,37589
6.51263,36745
6.51890,31512
6.52515,32227
6.53140,32787
6.53767,32739
6.54392,31283
6.55017,32017
6.55643,30297
6.56268,29929
6.56893,31266
6.57520,29957
6.58145,31062
6.58770,29347
6.59397,30670
6.60022,29205
6.60647,28575
6.61273,28993
6.61898,29650
6.62523,28015
6.63150,28434
6.63775,30121
6.64400,32400
6.65025,30840
6.65652,30295
6.66277,28535
6.66902,31933
6.67528,29957
6.68153,28251
6.68778,29260
6.69405,28134
6.70030,29328
6.70655,27963
6.71282,29709
6.71907,30765
6.72532,28993
6.73158,29093
6.73783,28105
6.74408,29305
6.75035,28658
6.75660,27814
6.76285,27499
6.76912,28461
6.77537,28779
6.78162,28329
6.78788,28699
6.79413,29430
6.80038,29111
6.80665,29371
6.81290,28938
6.81915,28896
6.82542,28070
6.83167,27491
6.83792,26535
6.84418,25561
6.85043,25753
6.85668,27477
6.86293,26220
6.86920,25731
6.87545,26347
6.88170,26458
6.88797,26646
6.89422,27984
6.90047,30484
6.90673,28631
6.91298,27613
6.91923,27423
6.92550,25262
6.93175,27086
6.93800,25690
6.94427,24199
6.95052,26230
6.95677,26988
6.96303,26144
6.96928,27012
6.97553,25482
6.98180,27245
6.98805,24243
6.99430,25933
7.00057,26350
7.00682,26422
7.01307,24597
7.01933,25923
7.02558,25145
7.03183,25452
7.03810,27113
7.04435,26281
7.05060,25623
7.05687,24515
7.06312,28201
7.06937,26580
7.07562,25548
7.08188,25001
7.08813,25070
7.09438,25261
7.10065,26364
7.10690,25737
7.11315,25074
7.11942,22827
7.12567,24085
7.13192,24757
7.13818,25424
7.14443,24671
7.15068,22770
7.15695,26092
7.16320,25256
7.16945,25402
7.17572,27260
7.18197,23343
7.18822,23637
7.19448,24630
7.20073,24207
7.20698,25490
7.21325,23787
7.21950,23421
7.22575,24472
7.23202,24469
7.23827,23295
7.24452,22708
7.25078,22795
7.25703,23320
7.26328,23133
7.26955,22665
7.27580,25068
7.28205,24469
7.28832,25612
7.29457,24620
7.30082,23092
7.30707,23601
7.31333,24485
7.31958,24790
7.32583,26118
7.33210,27069
7.33835,28426
7.34460,24882
7.35087,26329
7.35712,25883
7.36337,24230
7.36963,26187
7.37588,24916
7.38213,23437
7.38840,24338
7.39465,22685
7.40090,25233
7.40717,22691
7.41342,22633
7.41967,24632
7.42593,23646
7.43218,25210
7.43843,23549
7.44470,23984
7.45095,25872
7.45720,34765
7.46347,51867
7.46972,70187
7.47597,78700
7.48223,69272
7.48848,52665
7.49473,49531
7.50100,55106
7.50725,60701
7.51350,54435
7.51975,53687
7.52602,74785
7.53227,145139
7.53852,254963
7.54478,328118
7.55103,301484
7.55728,231218
7.56355,149722
7.56980,101940
7.57605,73808
7.58232,60147
7.58857,50732
7.59482,44234
7.60108,43070
7.60733,36181
7.61358,33732
7.61985,31286
7.62610,30228
7.63235,29619
7.63862,27609
7.64487,27850
7.65112,29337
7.65738,29340
7.66363,29528
7.66988,28950
7.67615,26668
7.68240,27070
7.68865,25857
7.69492,26114
7.70117,25347
7.70742,25874
7.71368,24499
7.71993,25432
7.72618,24322
7.73243,24220
7.73870,24713
7.74495,26380
7.75120,24988
7.75747,26580
7.76372,24641
7.76997,26402
7.77623,24616
7.78248,23673
7.78873,24955
7.79500,24467
7.80125,24342
7.80750,26674
7.81377,26714
7.82002,25588
7.82627,24210
7.83253,22515
7.83878,22942
7.84503,23320
7.85130,21822
7.85755,21613
7.86380,23075
7.87007,22046
7.87632,19583
7.88257,21505
7.88883,22218
7.89508,21145
7.90133,21954
7.90760,20853
7.91385,22395
7.92010,24236
7.92637,23233
7.93262,23237
7.93887,25215
7.94513,26405
7.95138,26650
7.95763,25729
7.96388,26632
7.97015,26080
7.97640,25139
7.98265,24260
7.98892,23297
7.99517,21155
8.00142,22679
8.00768,24952
8.01393,25362
8.02018,23770
8.02645,23311
8.03270,23508
8.03895,22614
8.04522,22811
8.05147,22225
8.05772,21585
8.06398,21845
8.07023,20586
8.07648,20335
8.08275,21250
8.08900,20561
8.09525,20165
8.10152,19263
8.10777,20323
8.11402,21486
8.12028,20931
8.12653,20432
8.13278,22054
8.13905,22752
8.14530,23830
8.15155,21408
8.15782,21970
8.16407,22336
8.17032,22386
8.17657,22231
8.18283,21114
8.18908,20154
8.19533,19887
8.20160,19483
8.20785,19924
8.21410,20262
8.22037,19535
8.22662,19487
8.23287,20555
8.23913,19945
8.24538,21295
8.25163,19852
8.25790,20381
8.26415,20033
8.27040,19958
8.27667,19979
8.28292,20134
8.28917,20460
8.29543,19767
8.30168,20462
8.30793,20911
8.31420,20738
8.32045,19416
8.32670,19774
8.33297,19249
8.33922,20888
8.34547,20765
8.35173,20145
8.35798,20155
8.36423,20183
8.37050,19245
8.37675,19425
8.38300,20776
8.38925,20222
8.39552,20780
8.40177,19814
8.40802,19483
8.41428,19635
8.42053,19460
8.42678,21732
8.43305,21764
8.43930,20197
8.44555,20595
8.45182,19183
8.45807,22091
8.46432,20972
8.47058,20418
8.47683,19547
8.48308,20257
8.48935,20764
8.49560,21541
8.50185,19867
8.50812,19376
8.51437,18613
8.52062,19622
8.52688,18661
8.53313,20179
8.53938,19592
8.54565,20928
8.55190,21040
8.55815,20119
8.56442,21446
8.57067,23202
8.57692,23035
8.58318,23040
8.58943,22110
8.59568,21732
8.60195,23259
8.60820,22366
8.61445,22847
8.62070,23157
8.62697,23646
8.63322,23866
8.63947,23668
8.64573,23248
8.65198,21040
8.65823,21518
8.66450,22306
8.67075,23158
8.67700,24854
8.68327,24303
8.68952,23460
8.69577,22502
8.70203,24163
8.70828,21567
8.71453,20781
8.72080,20700
8.72705,19835
8.73330,21908
8.73957,19998
8.74582,19997
8.75207,20296
8.75833,19621
8.76458,21012
8.77083,20202
8.77710,20177
8.78335,19275
8.78960,18310
8.79587,17539
8.80212,18611
8.80837,19132
8.81463,23643
8.82088,25095
8.82713,29992
8.83338,27321
8.83965,24591
8.84590,23739
8.85215,20451
8.85842,20703
8.86467,21427
8.87092,21852
8.87718,20954
8.88343,20987
8.88968,20866
8.89595,22606
8.90220,20335
8.90845,20727
8.91472,19667
8.92097,18238
8.92722,18858
8.93348,18936
8.93973,18043
8.94598,19830
8.95225,22311
8.95850,24647
8.96475,26744
8.97102,25950
8.97727,23893
8.98352,23135
8.98978,21330
8.99603,22724
9.00228,22032
9.00855,21762
9.01480,22729
9.02105,22024
9.02732,20545
9.03357,21050
9.03982,20261
9.04608,21220
9.05233,22100
9.05858,21445
9.06483,19851
9.07110,20323
9.07735,19475
9.08360,19284
9.08987,21047
9.09612,19905
9.10237,18027
9.10863,17257
9.11488,18102
9.12113,17818
9.12740,18069
9.13365,17986
9.13990,18549
9.14617,18704
9.15242,19693
9.15867,26257
9.16493,30000
9.17118,33746
9.17743,31586
9.18370,28408
9.18995,24248
9.19620,21799
9.20247,24206
9.20872,20319
9.21497,20465
9.22123,18257
9.22748,19803
9.23373,18364
9.24000,18101
9.24625,17299
9.25250,18525
9.25877,19557
9.26502,17858
9.27127,18324
9.27752,16292
9.28378,15272
9.29003,16058
9.29628,15662
9.30255,18068
9.30880,15888
9.31505,15561
9.32132,16933
9.32757,16578
9.33382,16888
9.34008,17441
9.34633,15502
9.35258,15636
9.35885,14891
9.36510,16055
9.37135,17549
9.37762,18005
9.38387,18448
9.39012,16512
9.39638,15746
9.40263,16256
9.40888,19720
9.41515,34355
9.42140,76940
9.42765,156189
9.43392,245608
9.44017,305555
9.44642,275659
9.45268,178702
9.45893,92801
9.46518,51920
9.47145,33891
9.47770,28629
9.48395,27866
9.49022,22859
9.49647,21622
9.50272,20520
9.50897,18153
9.51523,18475
9.52148,19506
9.52773,17879
9.53400,15869
9.54025,17083
9.54650,15837
9.55277,15817
9.55902,17318
9.56527,15821
9.57153,16772
9.57778,16953
9.58403,16632
9.59030,15975
9.59655,16092
9.60280,16934
9.60907,15705
9.61532,17637
9.62157,17360
9.62783,15161
9.63408,15116
9.64033,15648
9.64660,15086
9.65285,15356
9.65910,15752
9.66537,15476
9.67162,16807
9.67787,19201
9.68413,21108
9.69038,20682
9.69663,19872
9.70290,16627
9.70915,16861
9.71540,16197
9.72165,14301
9.72792,15980
9.73417,15006
9.74042,14347
9.74668,14723
9.75293,15674
9.75918,16369
9.76545,14236
9.77170,16085
9.77795,15781
9.78422,14627
9.79047,15183
9.79672,14110
9.80298,15269
9.80923,15172
9.81548,15108
9.82175,15454
9.82800,14418
9.83425,13717
9.84052,15131
9.84677,15824
9.85302,19227
9.85928,24852
9.86553,25805
9.87178,23021
9.87805,20770
9.88430,16708
9.89055,15586
9.89682,16518
9.90307,17545
9.90932,15630
9.91558,16541
9.92183,14693
9.92808,15354
9.93435,13971
9.94060,16086
9.94685,14544
9.95310,14299
9.95937,15406
9.96562,19687
9.97187,33705
9.97813,73488
9.98438,138943
9.99063,209268
9.99690,225633
10.00315,170993
10.00940,95130
10.01567,48267
10.02192,29800
10.02817,20271
10.03443,19013
10.04068,16295
10.04693,15423
10.05320,14866
10.05945,13966
10.06570,14372
10.07197,15001
10.07822,14931
10.08447,14982
10.09073,14818
10.09698,14689
10.10323,13754
10.10950,14111
10.11575,13713
10.12200,14997
10.12827,13806
10.13452,14858
10.14077,14697
10.14703,14823
10.15328,14283
10.15953,14852
10.16578,13824
10.17205,13683
10.17830,14504
10.18455,15094
10.19082,14443
10.19707,15122
10.20332,14043
10.20958,14329
10.21583,14483
10.22208,14525
10.22835,15679
10.23460,15337
10.24085,15564
10.24712,15472
10.25337,15319
10.25962,15750
10.26588,14966
10.27213,13180
10.27838,14344
10.28465,14828
10.29090,14797
10.29715,15765
10.30342,15504
10.30967,16906
10.31592,15436
10.32218,15538
10.32843,16239
10.33468,14610
10.34095,14939
10.34720,14896
10.35345,14695
10.35972,14541
10.36597,13949
10.37222,15145
10.37847,14709
10.38473,14328
10.39098,14083
10.39723,14311
10.40350,13325
10.40975,13526
10.41600,13548
10.42227,13792
10.42852,14741
10.43477,14364
10.44103,13729
10.44728,13326
10.45353,13337
10.45980,13883
10.46605,17650
10.47230,24522
10.47857,44566
10.48482,74049
10.49107,88790
10.49733,74072
10.50358,48533
10.50983,28750
10.51610,20753
10.52235,18186
10.52860,14003
10.53487,14662
10.54112,15015
10.54737,14468
10.55363,13602
10.55988,14825
10.56613,14632
10.57240,16643
10.57865,15078
10.58490,14979
10.59117,13819
10.59742,13664
10.60367,14150
10.60992,13584
10.61618,15461
10.62243,14676
10.62868,14391
10.63495,15306
10.64120,14033
10.64745,14075
10.65372,14294
10.65997,14377
10.66622,15217
10.67248,14903
10.67873,14905
10.68498,14270
10.69125,15228
10.69750,14169
10.70375,13365
10.71002,13018
10.71627,13198
10.72252,13762
10.72878,13019
10.73503,13304
10.74128,14279
10.74755,13120
10.75380,13816
10.76005,13203
10.76632,15833
10.77257,15372
10.77882,16914
10.78508,20797
10.79133,22781
10.79758,21507
10.80385,17197
10.81010,15351
10.81635,15195
10.82260,15223
10.82887,14087
10.83512,13915
10.84137,14359
10.84763,13715
10.85388,13754
10.86013,13386
10.86640,13798
10.87265,14554
10.87890,15078
10.88517,14482
10.89142,14230
10.89767,15922
10.90393,16048
10.91018,18141
10.91643,15279
10.92270,15801
10.92895,13790
10.93520,14980
10.94147,13930
10.94772,13182
10.95397,13583
10.96023,14352
10.96648,13308
10.97273,15008
10.97900,13064
10.98525,12972
10.99150,13885
10.99777,12542
11.00402,12655
11.01027,12555
11.01653,12916
11.02278,13236
11.02903,12597
11.03528,13860
11.04155,14210
11.04780,14585
11.05405,14379
11.06032,13680
11.06657,14541
11.07282,14467
11.07908,13329
11.08533,13502
11.09158,12365
11.09785,13779
11.10410,13586
11.11035,13782
11.11662,14773
11.12287,16054
11.12912,15729
11.13538,16345
11.14163,15475
11.14788,15398
11.15415,14361
11.16040,15522
11.16665,13680
11.17292,14602
11.17917,14808
11.18542,13771
11.19168,13465
11.19793,14679
11.20418,14039
11.21045,15979
11.21670,14705
11.22295,15013
11.22922,15450
11.23547,14207
11.24172,12250
11.24798,13334
11.25423,14337
11.26048,14522
11.26673,13798
11.27300,14818
11.27925,14808
11.28550,16033
11.29177,16452
11.29802,14087
11.30427,13880
11.31053,13282
11.31678,12163
11.32303,12649
11.32930,13117
11.33555,13466
11.34180,13440
11.34807,13417
11.35432,13182
11.36057,12260
11.36683,13632
11.37308,13469
11.37933,13947
11.38560,12784
11.39185,12693
11.39810,13059
11.40437,12607
11.41062,13281
11.41687,12435
11.42313,11983
11.42938,12666
11.43563,12313
11.44190,12312
11.44815,12184
11.45440,14189
11.46067,12871
11.46692,13284
11.47317,14105
11.47942,13527
11.48568,13126
11.49193,12780
11.49818,13279
11.50445,13540
11.51070,11937
11.51695,13933
11.52322,12565
11.52947,13775
11.53572,12541
11.54198,13910
11.54823,12269
11.55448,12167
11.56075,12697
11.56700,12656
11.57325,12564
11.57952,12381
11.58577,12751
11.59202,13253
11.59828,13432
11.60453,12810
11.61078,12315
11.61705,13745
11.62330,12824
11.62955,12127
11.63582,12788
11.64207,11792
11.64832,13878
11.65458,12901
11.66083,15441
11.66708,12498
11.67335,13090
11.67960,14859
11.68585,13758
11.69212,11541
11.69837,13406
11.70462,12585
11.71087,12598
11.71713,12732
11.72338,13260
11.72963,16325
11.73590,20839
11.74215,27931
11.74840,27545
11.75467,22690
11.76092,18314
11.76717,15063
11.77343,15998
11.77968,13918
11.78593,14702
11.79220,13433
11.79845,13934
11.80470,13817
11.81097,14276
11.81722,13241
11.82347,13961
11.82973,13006
11.83598,11890
11.84223,12426
11.84850,12620
11.85475,13225
11.86100,11991
11.86727,12793
11.87352,12626
11.87977,12558
11.88603,12173
11.89228,13377
11.89853,13580
11.90480,13044
11.91105,14791
11.91730,13981
11.92355,13008
11.92982,12520
11.93607,12658
11.94232,13813
11.94858,13785
11.95483,15411
11.96108,15682
11.96735,20125
11.97360,17617
11.97985,16935
11.98612,13781
11.99237,12984
11.99862,13736
12.00488,11246
12.01113,13209
12.01738,13521
12.02365,13441
12.02990,13363
12.03615,12621
12.04242,14099
12.04867,13688
12.05492,12648
12.06118,14284
12.06743,15460
12.07368,15656
12.07995,14677
12.08620,14807
12.09245,15893
12.09872,17296
12.10497,16931
12.11122,16947
12.11748,16822
12.12373,16856
12.12998,15668
12.13625,17498
12.14250,16072
12.14875,16261
12.15500,15350
12.16127,16686
12.16752,17093
12.17377,17532
12.18003,16547
12.18628,16550
12.19253,16977
12.19880,17135
12.20505,20380
12.21130,36348
12.21757,63570
12.22382,98720
12.23007,109995
12.23633,87579
12.24258,56769
12.24883,31015
12.25510,19857
12.26135,18801
12.26760,17649
12.27387,17988
12.28012,17578
12.28637,18101
12.29263,16158
12.29888,16370
12.30513,17195
12.31140,16578
12.31765,16269
12.32390,17013
12.33017,16609
12.33642,15575
12.34267,19187
12.34893,15919
12.35518,16336
12.36143,16181
12.36768,15232
12.37395,16411
12.38020,15176
12.38645,17155
12.39272,15921
12.39897,17797
12.40522,18343
12.41148,19403
12.41773,23990
12.42398,34343
12.43025,40944
12.43650,38179
12.44275,31470
12.44902,23967
12.45527,19067
12.46152,16955
12.46778,17360
12.47403,16526
12.48028,16202
12.48655,19450
12.49280,19713
12.49905,23614
12.50532,20244
12.51157,19280
12.51782,19295
12.52408,15515
12.53033,16060
12.53658,14796
12.54285,15059
12.54910,15823
12.55535,16427
12.56162,17037
12.56787,14824
12.57412,14662
12.58038,16381
12.58663,18606
12.59288,19300
12.59913,17490
12.60540,16643
12.61165,16392
12.61790,14750
12.62417,14499
12.63042,16946
12.63667,21214
12.64293,26396
12.64918,38155
12.65543,50993
12.66170,58044
12.66795,48711
12.67420,35465
12.68047,24676
12.68672,18077
12.69297,15832
12.69923,13846
12.70548,12328
12.71173,13721
12.71800,12401
12.72425,13299
12.73050,13281
12.73677,13326
12.74302,13284
12.74927,14000
12.75553,14064
12.76178,15076
12.76803,15507
12.77430,15567
12.78055,14886
12.78680,15738
12.79307,14187
12.79932,12986
12.80557,13315
12.81182,15668
12.81808,15096
12.82433,15990
12.83058,14820
12.83685,13845
12.84310,13759
12.84935,12969
12.85562,12169
12.86187,11736
12.86812,13274
12.87438,12595
12.88063,13350
12.88688,15411
12.89315,16692
12.89940,19574
12.90565,19696
12.91192,17527
12.91817,14502
12.92442,13804
12.93068,14351
12.93693,14097
12.94318,14047
12.94945,14349
12.95570,13580
12.96195,12985
12.96822,12911
12.97447,12560
12.98072,13306
12.98698,12208
12.99323,13141
12.99948,12501
13.00575,12746
13.01200,13088
13.01825,13175
13.02450,12893
13.03077,13336
13.03702,11453
13.04327,12415
13.04953,11609
13.05578,11565
13.06203,13394
13.06830,11578
13.07455,12941
13.08080,15431
13.08707,20125
13.09332,32247
13.09957,49520
13.10583,57393
13.11208,48179
13.11833,34389
13.12460,21287
13.13085,15878
13.13710,13010
13.14337,14270
13.14962,13611
13.15587,14459
13.16213,13736
13.16838,13725
13.17463,14208
13.18090,13894
13.18715,13133
13.19340,13211
13.19967,13059
13.20592,12508
13.21217,11837
13.21843,12300
13.22468,12187
13.23093,11822
13.23720,13019
13.24345,12567
13.24970,13206
13.25595,13358
13.26222,14165
13.26847,18953
13.27472,19251
13.28098,16833
13.28723,14904
13.29348,12979
13.29975,13818
13.30600,13987
13.31225,13612
13.31852,13546
13.32477,13110
13.33102,13709
13.33728,12741
13.34353,12382
13.34978,11580
13.35605,12575
13.36230,12617
13.36855,13318
13.37482,15131
13.38107,13108
13.38732,12825
13.39358,13147
13.39983,12895
13.40608,12370
13.41235,12249
13.41860,13101
13.42485,11761
13.43112,12164
13.43737,12733
13.44362,13303
13.44988,11385
13.45613,12839
13.46238,12324
13.46863,13030
13.47490,13477
13.48115,13073
13.48740,14197
13.49367,15234
13.49992,15326
13.50617,14936
13.51243,13385
13.51868,11549
13.52493,13242
13.53120,11815
13.53745,14311
13.54370,12676
13.54997,14198
13.55622,14617
13.56247,13315
13.56873,13375
13.57498,13418
13.58123,13529
13.58750,11649
13.59375,12851
13.60000,12143
13.60627,11514
13.61252,12426
13.61877,13055
13.62503,12587
13.63128,12321
13.63753,12248
13.64380,11599
13.65005,12098
13.65630,12565
13.66257,12335
13.66882,12251
13.67507,11550
13.68132,11957
13.68758,12537
13.69383,12296
13.70008,12017
13.70635,11662
13.71260,12808
13.71885,12141
13.72512,11611
13.73137,12858
13.73762,12280
13.74388,12295
13.75013,11643
13.75638,12534
13.76265,11625
13.76890,12549
13.77515,11229
13.78142,12607
13.78767,11774
13.79392,11685
13.80018,11560
13.80643,12227
13.81268,11939
13.81895,12689
13.82520,12656
13.83145,12344
13.83772,12184
13.84397,13251
13.85022,12253
13.85648,13438
13.86273,13294
13.86898,13137
13.87525,12691
13.88150,12185
13.88775,12892
13.89402,11813
13.90027,11786
13.90652,12687
13.91277,12540
13.91903,12772
13.92528,13717
13.93153,11524
13.93780,12240
13.94405,11841
13.95030,10980
13.95657,13014
13.96282,13231
13.96907,11195
13.97533,12607
13.98158,16355
13.98783,16887
13.99410,17808
14.00035,16750
14.00660,14934
14.01287,13806
14.01912,11694
14.02537,12653
14.03163,11921
14.03788,12340
14.04413,11541
14.05040,13143
14.05665,11531
14.06290,14507
14.06917,19698
14.07542,26158
14.08167,26155
14.08793,22685
14.09418,16890
14.10043,14109
14.10670,12725
14.11295,12557
14.11920,12712
14.12545,12513
14.13172,12797
14.13797,12187
14.14422,13055
14.15048,12293
14.15673,12856
14.16298,11243
14.16925,13289
14.17550,12126
14.18175,13750
14.18802,13264
14.19427,14108
14.20052,12036
14.20678,12920
14.21303,17052
14.21928,22791
14.22555,36430
14.23180,49296
14.23805,55049
14.24432,41199
14.25057,27058
14.25682,15570
14.26308,12397
14.26933,12333
14.27558,13194
14.28185,12485
14.28810,12502
14.29435,12817
14.30062,13445
14.30687,12685
14.31312,13834
14.31938,13490
14.32563,14688
14.33188,15425
14.33815,15485
14.34440,14988
14.35065,14603
14.35690,13623
14.36317,12307
14.36942,14123
14.37567,14065
14.38193,13972
14.38818,12163
14.39443,12341
14.40070,12176
14.40695,11655
14.41320,11833
14.41947,12009
14.42572,13308
14.43197,12403
14.43823,12599
14.44448,12511
14.45073,13199
14.45700,13325
14.46325,13061
14.46950,14368
14.47577,13770
14.48202,16350
14.48827,37927
14.49453,156692
14.50078,777611
14.50703,3040736
14.51330,6662707
14.51955,1.01482E+07
14.52580,1.06974E+07
14.53207,7108536
14.53832,2592146
14.54457,594919
14.55083,143760
14.55708,64231
14.56333,50459
14.56958,42663
14.57585,37150
14.58210,35616
14.58835,36152
14.59462,38376
14.60087,37709
14.60712,32651
14.61338,29386
14.61963,26352
14.62588,23491
14.63215,23436
14.63840,22957
14.64465,21557
14.65092,19693
14.65717,20770
14.66342,20128
14.66968,19295
14.67593,18442
14.68218,17856
14.68845,18376
14.69470,16650
14.70095,18100
14.70722,18940
14.71347,18404
14.71972,20014
14.72598,19532
14.73223,21634
14.73848,21451
14.74475,22006
14.75100,21192
14.75725,18435
14.76352,17163
14.76977,17429
14.77602,15735
14.78228,17609
14.78853,16828
14.79478,16158
14.80103,16624
14.80730,15405
14.81355,15131
14.81980,16548
14.82607,15626
14.83232,15187
14.83857,15309
14.84483,14764
14.85108,15440
14.85733,16423
14.86360,15232
14.86985,15061
14.87610,16135
14.88237,13722
14.88862,13957
14.89487,15885
14.90113,14975
14.90738,14498
14.91363,13320
14.91990,13818
14.92615,15853
14.93240,14629
14.93867,13667
14.94492,15194
14.95117,17159
14.95743,18146
14.96368,17992
14.96993,17077
14.97620,16411
14.98245,16814
14.98870,15937
14.99497,16927
15.00122,15303
15.00747,12934
15.01372,12254
15.01998,13502
15.02623,13844
15.03248,13374
15.03875,14658
15.04500,13172
15.05125,13490
15.05752,14360
15.06377,15247
15.07002,14493
15.07628,12828
15.08253,14150
15.08878,13884
15.09505,13671
15.10130,14122
15.10755,14936
15.11382,13322
15.12007,14994
15.12632,15976
15.13258,15317
15.13883,14723
15.14508,14225
15.15135,14984
15.15760,16569
15.16385,16191
15.17012,15446
15.17637,13804
15.18262,15257
15.18888,16887
15.19513,14670
15.20138,16553
15.20765,15424
15.21390,14829
15.22015,15470
15.22642,14775
15.23267,14557
15.23892,14266
15.24517,13886
15.25143,14612
15.25768,13317
15.26393,15294
15.27020,14293
15.27645,13852
15.28270,15005
15.28897,14967
15.29522,14753
15.30147,15029
15.30773,15589
15.31398,17301
15.32023,16165
15.32650,18199
15.33275,15344
15.33900,15649
15.34527,14207
15.35152,14522
15.35777,14655
15.36403,14016
15.37028,14682
15.37653,13976
15.38280,13966
15.38905,15580
15.39530,14727
15.40157,14411
15.40782,16235
15.41407,15300
15.42033,15675
15.42658,15438
15.43283,15265
15.43910,15804
15.44535,17286
15.45160,16170
15.45785,16704
15.46412,17434
15.47037,15739
15.47662,14894
15.48288,15061
15.48913,15636
15.49538,17212
15.50165,16677
15.50790,16945
15.51415,15530
15.52042,17213
15.52667,16805
15.53292,16229
15.53918,16748
15.54543,16735
15.55168,17535
15.55795,16600
15.56420,18116
15.57045,16673
15.57672,15968
15.58297,15433
15.58922,16211
15.59548,16285
15.60173,16888
15.60798,18269
15.61425,18183
15.62050,16656
15.62675,16523
15.63302,13596
15.63927,15099
15.64552,15826
15.65178,14154
15.65803,15002
15.66428,14626
15.67053,12914
15.67680,12824
15.68305,12880
15.68930,13865
15.69557,13472
15.70182,13189
15.70807,15130
15.71433,13264
15.72058,14307
15.72683,14069
15.73310,11394
15.73935,13063
15.74560,12833
15.75187,15025
15.75812,13439
15.76437,14244
15.77063,12764
15.77688,14220
15.78313,13161
15.78940,14444
15.79565,14576
15.80190,14449
15.80817,15012
15.81442,13294
15.82067,13051
15.82693,14086
15.83318,13972
15.83943,13943
15.84570,12994
15.85195,14455
15.85820,14009
15.86447,12416
15.87072,13180
15.87697,11719
15.88323,13262
15.88948,13299
15.89573,12693
15.90198,11770
15.90825,13776
15.91450,14084
15.92075,12459
15.92702,12474
15.93327,12026
15.93952,13858
15.94578,13500
15.95203,14953
15.95828,21811
15.96455,32060
15.97080,40085
15.97705,39773
15.98332,33064
15.98957,21488
15.99582,17631
16.00208,13367
16.00833,12176
16.01458,12885
16.02085,13871
16.02710,13302
16.03335,12914
16.03962,13637
16.04587,13283
16.05212,12813
16.05838,12857
16.06463,13301
16.07088,13286
16.07715,12747
16.08340,12634
16.08965,14213
16.09592,12635
16.10217,13420
16.10842,13356
16.11467,13055
16.12093,12313
16.12718,12851
16.13343,13272
16.13970,14046
16.14595,12574
16.15220,13492
16.15847,12155
16.16472,12036
16.17097,14669
16.17723,14609
16.18348,15319
16.18973,18472
16.19600,27740
16.20225,32604
16.20850,33946
16.21477,26081
16.22102,18216
16.22727,14119
16.23353,12791
16.23978,13284
16.24603,14137
16.25230,12421
16.25855,13572
16.26480,13454
16.27107,15540
16.27732,13135
16.28357,12359
16.28983,13760
16.29608,12832
16.30233,12345
16.30860,13137
16.31485,13574
16.32110,13590
16.32735,12178
16.33362,13378
16.33987,13653
16.34612,13325
16.35238,13423
16.35863,12894
16.36488,12423
16.37115,13670
16.37740,12815
16.38365,12915
16.38992,12453
16.39617,13331
16.40242,12299
16.40868,12710
16.41493,12782
16.42118,13241
16.42745,12975
16.43370,14076
16.43995,14509
16.44622,16340
16.45247,17545
16.45872,18920
16.46498,16782
16.47123,15693
16.47748,14532
16.48375,14014
16.49000,13125
16.49625,14407
16.50252,13303
16.50877,14046
16.51502,16021
16.52128,18463
16.52753,18682
16.53378,17773
16.54005,16348
16.54630,15363
16.55255,12898
16.55880,14558
16.56507,14230
16.57132,12753
16.57757,13705
16.58383,12959
16.59008,15034
16.59633,13946
16.60260,14196
16.60885,15393
16.61510,13120
16.62137,13915
16.62762,16517
16.63387,17836
16.64013,17620
16.64638,16377
16.65263,16777
16.65890,17495
16.66515,21085
16.67140,25987
16.67767,37157
16.68392,43320
16.69017,42308
16.69643,31230
16.70268,22338
16.70893,16843
16.71520,14979
16.72145,14557
16.72770,14338
16.73397,14247
16.74022,14603
16.74647,14130
16.75273,14437
16.75898,14961
16.76523,20031
16.77148,28983
16.77775,44248
16.78400,55135
16.79025,56683
16.79652,54648
16.80277,47218
16.80902,40608
16.81528,32310
16.82153,25297
16.82778,24407
16.83405,23210
16.84030,21680
16.84655,18947
16.85282,17414
16.85907,16610
16.86532,19385
16.87158,26468
16.87783,35847
16.88408,47411
16.89035,47990
16.89660,42761
16.90285,31278
16.90912,21491
16.91537,17925
16.92162,20088
16.92788,19616
16.93413,19034
16.94038,18504
16.94665,16319
16.95290,20884
16.95915,22227
16.96542,21724
16.97167,22540
16.97792,19812
16.98418,18187
16.99043,17384
16.99668,14848
17.00293,15916
17.00920,15712
17.01545,18480
17.02170,30245
17.02797,83128
17.03422,279297
17.04047,771783
17.04673,1556972
17.05298,2104858
17.05923,2008229
17.06550,1226761
17.07175,509127
17.07800,164835
17.08427,60206
17.09052,34308
17.09677,26919
17.10303,23763
17.10928,20898
17.11553,21194
17.12180,22359
17.12805,22471
17.13430,24977
17.14057,25199
17.14682,30176
17.15307,42922
17.15933,56530
17.16558,67035
17.17183,54358
17.17810,36343
17.18435,25766
17.19060,24281
17.19687,23696
17.20312,23295
17.20937,21978
17.21562,34050
17.22188,75530
17.22813,161402
17.23438,272434
17.24065,318068
17.24690,282048
17.25315,164199
17.25942,75020
17.26567,33656
17.27192,22334
17.27818,19226
17.28443,16921
17.29068,16034
17.29695,16996
17.30320,16864
17.30945,16641
17.31572,16749
17.32197,18004
17.32822,16535
17.33448,14618
17.34073,14511
17.34698,14779
17.35325,12928
17.35950,14721
17.36575,15293
17.37202,14449
17.37827,15740
17.38452,15457
17.39078,16217
17.39703,16892
17.40328,15712
17.40955,15739
17.41580,15276
17.42205,14301
17.42832,15276
17.43457,14577
17.44082,17821
17.44707,20352
17.45333,22956
17.45958,24387
17.46583,20884
17.47210,17166
17.47835,14136
17.48460,13827
17.49087,13025
17.49712,14004
17.50337,14891
17.50963,20105
17.51588,26210
17.52213,33340
17.52840,35301
17.53465,29874
17.54090,21241
17.54717,14828
17.55342,13882
17.55967,13097
17.56593,12671
17.57218,13808
17.57843,13528
17.58470,13101
17.59095,14039
17.59720,13513
17.60347,12111
17.60972,12889
17.61597,13851
17.62223,11625
17.62848,12786
17.63473,12979
17.64100,12184
17.64725,12388
17.65350,11535
17.65975,12823
17.66602,12777
17.67227,13059
17.67852,12235
17.68478,12323
17.69103,13240
17.69728,12241
17.70355,10998
17.70980,13278
17.71605,12957
17.72232,11892
17.72857,13722
17.73482,12176
17.74108,12311
17.74733,11685
17.75358,12454
17.75985,12358
17.76610,12950
17.77235,12783
17.77862,12895
17.78487,14241
17.79112,12625
17.79738,13309
17.80363,14813
17.80988,16275
17.81615,16971
17.82240,19547
17.82865,26315
17.83492,64385
17.84117,150197
17.84742,291378
17.85368,426335
17.85993,423901
17.86618,265323
17.87245,131389
17.87870,73793
17.88495,49377
17.89120,39667
17.89747,37083
17.90372,37043
17.90997,36692
17.91623,37173
17.92248,32684
17.92873,29471
17.93500,25014
17.94125,23785
17.94750,22687
17.95377,21786
17.96002,21465
17.96627,19630
17.97253,20057
17.97878,19670
17.98503,18853
17.99130,20394
17.99755,19046
18.00380,18424
18.01007,19705
18.01632,17359
18.02257,17703
18.02883,18119
18.03508,15797
18.04133,17553
18.04760,17418
18.05385,16571
18.06010,17532
18.06637,15775
18.07262,16010
18.07887,15573
18.08513,15513
18.09138,15307
18.09763,15422
18.10388,14542
18.11015,13969
18.11640,15378
18.12265,19780
18.12892,34040
18.13517,76974
18.14142,138198
18.14768,180731
18.15393,163949
18.16018,92263
18.16645,47101
18.17270,25327
18.17895,18448
18.18522,16529
18.19147,15484
18.19772,17115
18.20398,15191
18.21023,14519
18.21648,15554
18.22275,14147
18.22900,15221
18.23525,13684
18.24152,14249
18.24777,15003
18.25402,15074
18.26028,14473
18.26653,15738
18.27278,16355
18.27905,16835
18.28530,16332
18.29155,15608
18.29782,15264
18.30407,17614
18.31032,15858
18.31657,16026
18.32283,15502
18.32908,14424
18.33533,13620
18.34160,15058
18.34785,14413
18.35410,13956
18.36037,14035
18.36662,12067
18.37287,12568
18.37913,14666
18.38538,13239
18.39163,15674
18.39790,13765
18.40415,12515
18.41040,13216
18.41667,13869
18.42292,13253
18.42917,13698
18.43543,13734
18.44168,14124
18.44793,14261
18.45420,12980
18.46045,12695
18.46670,13583
18.47297,13179
18.47922,12544
18.48547,13492
18.49173,12030
18.49798,14443
18.50423,14643
18.51050,14650
18.51675,13624
18.52300,13053
18.52927,13667
18.53552,13810
18.54177,13280
18.54802,14264
18.55428,14220
18.56053,12541
18.56678,14446
18.57305,13978
18.57930,13003
18.58555,13382
18.59182,13931
18.59807,13228
18.60432,14768
18.61058,14047
18.61683,13904
18.62308,14711
18.62935,13215
18.63560,13505
18.64185,13554
18.64812,13225
18.65437,14101
18.66062,13327
18.66688,13698
18.67313,13481
18.67938,13133
18.68565,13044
18.69190,13403
18.69815,13823
18.70442,12781
18.71067,13971
18.71692,13685
18.72318,13747
18.72943,13604
18.73568,14159
18.74195,13660
18.74820,13703
18.75445,13926
18.76070,11814
18.76697,13781
18.77322,12867
18.77947,14923
18.78573,15214
18.79198,14522
18.79823,12915
18.80450,14068
18.81075,14077
18.81700,13821
18.82327,13367
18.82952,13908
18.83577,14531
18.84203,14507
18.84828,14211
18.85453,14542
18.86080,14267
18.86705,15956
18.87330,23922
18.87957,33358
18.88582,43181
18.89207,53766
18.89833,64229
18.90458,66134
18.91083,51392
18.91710,35636
18.92335,20112
18.92960,18324
18.93587,21770
18.94212,26449
18.94837,33093
18.95463,31206
18.96088,24538
18.96713,18579
18.97338,14299
18.97965,14246
18.98590,13195
18.99215,14629
18.99842,13073
19.00467,14684
19.01092,14209
19.01718,13037
19.02343,13894
19.02968,14138
19.03595,14149
19.04220,14763
19.04845,14032
19.05472,14375
19.06097,15145
19.06722,15508
19.07348,13446
19.07973,14348
19.08598,12559
19.09225,14384
19.09850,13478
19.10475,13714
19.11102,13760
19.11727,14618
19.12352,12935
19.12978,13865
19.13603,13011
19.14228,13199
19.14855,12506
19.15480,15060
19.16105,14654
19.16732,13932
19.17357,13989
19.17982,13092
19.18608,11724
19.19233,13024
19.19858,13418
19.20483,13184
19.21110,13233
19.21735,12796
19.22360,13509
19.22987,12956
19.23612,12713
19.24237,12823
19.24863,12570
19.25488,13373
19.26113,12977
19.26740,13036
19.27365,12169
19.27990,12998
19.28617,11994
19.29242,12405
19.29867,13005
19.30493,13401
19.31118,11598
19.31743,11608
19.32370,11690
19.32995,13541
19.33620,12451
19.34247,13077
19.34872,11584
19.35497,11769
19.36123,12474
19.36748,12643
19.37373,14325
19.38000,12175
19.38625,13502
19.39250,12241
19.39877,13070
19.40502,14232
19.41127,14051
19.41752,13583
19.42378,12286
19.43003,11914
19.43628,12347
19.44255,13460
19.44880,12388
19.45505,12432
19.46132,12806
19.46757,13724
19.47382,14449
19.48008,16276
19.48633,15732
19.49258,14127
19.49885,11816
19.50510,13515
19.51135,13477
19.51762,14149
19.52387,15117
19.53012,13059
19.53638,14804
19.54263,12393
19.54888,11919
19.55515,12387
19.56140,12406
19.56765,12849
19.57392,12471
19.58017,13404
19.58642,12345
19.59268,12310
19.59893,12871
19.60518,12300
19.61145,12734
19.61770,13310
19.62395,12933
19.63022,13203
19.63647,12074
19.64272,12978
19.64897,13220
19.65523,12766
19.66148,12720
19.66773,12130
19.67400,12986
19.68025,12616
19.68650,12619
19.69277,13243
19.69902,15607
19.70527,17588
19.71153,18807
19.71778,18734
19.72403,15850
19.73030,14976
19.73655,13712
19.74280,12880
19.74907,12967
19.75532,13052
19.76157,13257
19.76783,13760
19.77408,13517
19.78033,13240
19.78660,12565
19.79285,12230
19.79910,13746
19.80537,12932
19.81162,12367
19.81787,13976
19.82413,12584
19.83038,12568
19.83663,13897
19.84290,13350
19.84915,12843
19.85540,13295
19.86165,12407
19.86792,13057
19.87417,13857
19.88042,12550
19.88668,11617
19.89293,13718
19.89918,13184
19.90545,17041
19.91170,27297
19.91795,64443
19.92422,140586
19.93047,234381
19.93672,251042
19.94298,177176
19.94923,99077
19.95548,45323
19.96175,24829
19.96800,18281
19.97425,16274
19.98052,15548
19.98677,16390
19.99302,12878
19.99928,14940
20.00553,14179
20.01178,14309
20.01805,14932
20.02430,14518
20.03055,14597
20.03682,13295
20.04307,13987
20.04932,13857
20.05558,13580
20.06183,13501
20.06808,13879
20.07435,13385
20.08060,14281
20.08685,14268
20.09310,14183
20.09937,13827
20.10562,14033
20.11187,14358
20.11813,13373
20.12438,13496
20.13063,15053
20.13690,14451
20.14315,13959
20.14940,12308
20.15567,14043
20.16192,13391
20.16817,15176
20.17443,21428
20.18068,38413
20.18693,75930
20.19320,119942
20.19945,150091
20.20570,126187
20.21197,83208
20.21822,43707
20.22447,28401
20.23073,30799
20.23698,32815
20.24323,36284
20.24950,35425
20.25575,25965
20.26200,20021
20.26827,16417
20.27452,16315
20.28077,15039
20.28703,14425
20.29328,14462
20.29953,15062
20.30578,14985
20.31205,14673
20.31830,14176
20.32455,14084
20.33082,14153
20.33707,15220
20.34332,13804
20.34958,15187
20.35583,14926
20.36208,16987
20.36835,18868
20.37460,20213
20.38085,20583
20.38712,18119
20.39337,18082
20.39962,15830
20.40588,15345
20.41213,14890
20.41838,14694
20.42465,13738
20.43090,13906
20.43715,14212
20.44342,13681
20.44967,14592
20.45592,13617
20.46218,14672
20.46843,13894
20.47468,14310
20.48095,13956
20.48720,14541
20.49345,13389
20.49972,14847
20.50597,14002
20.51222,15078
20.51848,13990
20.52473,14370
20.53098,14073
20.53723,13791
20.54350,15462
20.54975,14185
20.55600,13669
20.56227,14315
20.56852,14048
20.57477,14588
20.58103,15048
20.58728,14642
20.59353,14673
20.59980,15264
20.60605,14296
20.61230,14648
20.61857,14154
20.62482,13957
20.63107,13680
20.63733,14700
20.64358,13531
20.64983,13363
20.65610,13437
20.66235,14912
20.66860,14872
20.67487,14676
20.68112,13333
20.68737,14326
20.69363,14985
20.69988,14336
20.70613,13447
20.71240,13925
20.71865,13761
20.72490,14969
20.73117,12485
20.73742,13493
20.74367,15352
20.74992,14474
20.75618,13748
20.76243,14851
20.76868,14448
20.77495,14455
20.78120,14446
20.78745,15359
20.79372,15392
20.79997,15603
20.80622,16160
20.81248,13797
20.81873,15157
20.82498,14670
20.83125,14705
20.83750,14677
20.84375,13358
20.85002,14085
20.85627,15177
20.86252,15159
20.86878,15827
20.87503,14219
20.88128,14926
20.88755,14441
20.89380,14279
20.90005,14382
20.90632,14422
20.91257,14762
20.91882,15112
20.92508,14373
20.93133,14254
20.93758,12195
20.94385,13611
20.95010,16154
20.95635,14391
20.96260,15575
20.96887,14582
20.97512,14116
20.98137,14386
20.98763,15106
20.99388,14708
21.00013,14196
21.00640,13787
21.01265,15134
21.01890,14806
21.02517,15894
21.03142,17304
21.03767,21699
21.04393,21119
21.05018,21649
21.05643,19471
21.06270,16460
21.06895,14710
21.07520,13945
21.08147,14265
21.08772,15181
21.09397,13738
21.10023,14488
21.10648,14984
21.11273,15234
21.11900,15283
21.12525,16390
21.13150,16294
21.13777,15138
21.14402,12810
21.15027,14923
21.15653,14248
21.16278,14502
21.16903,14154
21.17530,13754
21.18155,14323
21.18780,15050
21.19405,14810
21.20032,14416
21.20657,15815
21.21282,15563
21.21908,14417
21.22533,14329
21.23158,14966
21.23785,14876
21.24410,15032
21.25035,14978
21.25662,14767
21.26287,14363
21.26912,13998
21.27538,13284
21.28163,14872
21.28788,14684
21.29415,15606
21.30040,14924
21.30665,15767
21.31292,13305
21.31917,15270
21.32542,16308
21.33168,14867
21.33793,15033
21.34418,17043
21.35045,19608
21.35670,21759
21.36295,21172
21.36922,18524
21.37547,16934
21.38172,15396
21.38798,16163
21.39423,14428
21.40048,15933
21.40673,15721
21.41300,15299
21.41925,20905
21.42550,25690
21.43177,30255
21.43802,28923
21.44427,24874
21.45053,22551
21.45678,15754
21.46303,15797
21.46930,15342
21.47555,14428
21.48180,13831
21.48807,14226
21.49432,15510
21.50057,15530
21.50683,13876
21.51308,14259
21.51933,14528
21.52560,15117
21.53185,14938
21.53810,13977
21.54437,14883
21.55062,14323
21.55687,14897
21.56313,15456
21.56938,14584
21.57563,15752
21.58190,14648
21.58815,14974
21.59440,14479
21.60067,14640
21.60692,14102
21.61317,13317
21.61942,13678
21.62568,15457
21.63193,13731
21.63818,15380
21.64445,14939
21.65070,14151
21.65695,13857
21.66322,14234
21.66947,15138
21.67572,15731
21.68198,16215
21.68823,15915
21.69448,14470
21.70075,14876
21.70700,13871
21.71325,14086
21.71952,14364
21.72577,14734
21.73202,13460
21.73828,14045
21.74453,13925
21.75078,16701
21.75705,15711
21.76330,14612
21.76955,16891
21.77582,17745
21.78207,21523
21.78832,23545
21.79458,24290
21.80083,20508
21.80708,18973
21.81335,16268
21.81960,14616
21.82585,15741
21.83212,15716
21.83837,15480
21.84462,15981
21.85087,14674
21.85713,13345
21.86338,16274
21.86963,13719
21.87590,14847
21.88215,14396
21.88840,15175
21.89467,15263
21.90092,15686
21.90717,12937
21.91343,14673
21.91968,14063
21.92593,15763
21.93220,14848
21.93845,14402
21.94470,14047
21.95097,14376
21.95722,14665
21.96347,15035
21.96973,15756
21.97598,16392
21.98223,16658
21.98850,16382
21.99475,15422
22.00100,15090
22.00727,14829
22.01352,16017
22.01977,16113
22.02603,15740
22.03228,15897
22.03853,14873
22.04480,15748
22.05105,15066
22.05730,15985
22.06355,16004
22.06982,15345
22.07607,14726
22.08232,15476
22.08858,15039
22.09483,15278
22.10108,14838
22.10735,15741
22.11360,15294
22.11985,15112
22.12612,14411
22.13237,15727
22.13862,16076
22.14488,14856
22.15113,13715
22.15738,15771
22.16365,14108
22.16990,15737
22.17615,16258
22.18242,14942
22.18867,15472
22.19492,15419
22.20118,16255
22.20743,16172
22.21368,16800
22.21995,15472
22.22620,14472
22.23245,16063
22.23872,14674
22.24497,16496
22.25122,16076
22.25748,15234
22.26373,15715
22.26998,15806
22.27625,15383
22.28250,17131
22.28875,15162
22.29500,15826
22.30127,15382
22.30752,15493
22.31377,14237
22.32003,15322
22.32628,15705
22.33253,16469
22.33880,15842
22.34505,15970
22.35130,14655
22.35757,15332
22.36382,15445
22.37007,17195
22.37633,16675
22.38258,16752
22.38883,15974
22.39510,14574
22.40135,16041
22.40760,15912
22.41387,14972
22.42012,15617
22.42637,14858
22.43263,14790
22.43888,13430
22.44513,15238
22.45140,15649
22.45765,15947
22.46390,16450
22.47017,16077
22.47642,17361
22.48267,16840
22.48893,15592
22.49518,15177
22.50143,16159
22.50768,15731
22.51395,15407
22.52020,15667
22.52645,16879
22.53272,19277
22.53897,22688
22.54522,33605
22.55148,41404
22.55773,46183
22.56398,42072
22.57025,33707
22.57650,31532
22.58275,28086
22.58902,21705
22.59527,19733
22.60152,17599
22.60778,15968
22.61403,18033
22.62028,17838
22.62655,16881
22.63280,18658
22.63905,21446
22.64532,25462
22.65157,26797
22.65782,27869
22.66408,31860
22.67033,35550
22.67658,37546
22.68285,32101
22.68910,26974
22.69535,21318
22.70162,19727
22.70787,16899
22.71412,17787
22.72038,17585
22.72663,19705
22.73288,21259
22.73913,19688
22.74540,19785
22.75165,17485
22.75790,19237
22.76417,16230
22.77042,17043
22.77667,17455
22.78293,18889
22.78918,22242
22.79543,28581
22.80170,41840
22.80795,55922
22.81420,52607
22.82047,45002
22.82672,31059
22.83297,21833
22.83923,19026
22.84548,18751
22.85173,17963
22.85800,19554
22.86425,17622
22.87050,16455
22.87677,19049
22.88302,18001
22.88927,16609
22.89553,16613
22.90178,17823
22.90803,18002
22.91430,17191
22.92055,17186
22.92680,16448
22.93307,18282
22.93932,17521
22.94557,17412
22.95182,17610
22.95808,17038
22.96433,17195
22.97058,17970
22.97685,16685
22.98310,17684
22.98935,18785
22.99562,15827
23.00187,16890
23.00812,16803
23.01438,17701
23.02063,18525
23.02688,17071
23.03315,17155
23.03940,16753
23.04565,19024
23.05192,18258
23.05817,17507
23.06442,17267
23.07068,18146
23.07693,18787
23.08318,18705
23.08945,18518
23.09570,17385
23.10195,20059
23.10822,19083
23.11447,17927
23.12072,17795
23.12698,17373
23.13323,17210
23.13948,19935
23.14575,18402
23.15200,17448
23.15825,17925
23.16452,16952
23.17077,17282
23.17702,17580
23.18327,18542
23.18953,17405
23.19578,17660
23.20203,18484
23.20830,16878
23.21455,18830
23.22080,17347
23.22707,18291
23.23332,17484
23.23957,17732
23.24583,17392
23.25208,17874
23.25833,17229
23.26460,18164
23.27085,19201
23.27710,19444
23.28337,18115
23.28962,16803
23.29587,18435
23.30213,17873
23.30838,18601
23.31463,17170
23.32090,17169
23.32715,17401
23.33340,18145
23.33967,17489
23.34592,17534
23.35217,17837
23.35843,17938
23.36468,18753
23.37093,17291
23.37720,17023
23.38345,17449
23.38970,18891
23.39595,18543
23.40222,18264
23.40847,18682
23.41472,18711
23.42098,19809
23.42723,20415
23.43348,18998
23.43975,18694
23.44600,18427
23.45225,19676
23.45852,18780
23.46477,18646
23.47102,19805
23.47728,19136
23.48353,18748
23.48978,18238
23.49605,18172
23.50230,19150
23.50855,20071
23.51482,19186
23.52107,18646
23.52732,19586
23.53358,19423
23.53983,20762
23.54608,19520
23.55235,18045
23.55860,19919
23.56485,19311
23.57112,19918
23.57737,19026
23.58362,20617
23.58988,26431
23.59613,24911
23.60238,28604
23.60863,29021
23.61490,27226
23.62115,24160
23.62740,21879
23.63367,21102
23.63992,21537
23.64617,20115
23.65243,20061
23.65868,20200
23.66493,19386
23.67120,18511
23.67745,19517
23.68370,21452
23.68997,20456
23.69622,20382
23.70247,20162
23.70873,18617
23.71498,20694
23.72123,19734
23.72750,19212
23.73375,18593
23.74000,19281
23.74627,19869
23.75252,19912
23.75877,20088
23.76503,19408
23.77128,19243
23.77753,19327
23.78380,19239
23.79005,19292
23.79630,20061
23.80257,19930
23.80882,19182
23.81507,19124
23.82133,19029
23.82758,19779
23.83383,21225
23.84008,19587
23.84635,20245
23.85260,19662
23.85885,20647
23.86512,19927
23.87137,20347
23.87762,20084
23.88388,19258
23.89013,19863
23.89638,20635
23.90265,20181
23.90890,20451
23.91515,20720
23.92142,20185
23.92767,19791
23.93392,20554
23.94018,21786
23.94643,24388
23.95268,37191
23.95895,66337
23.96520,106789
23.97145,138083
23.97772,143660
23.98397,105815
23.99022,73742
23.99648,53669
24.00273,40394
24.00898,34632
24.01525,30189
24.02150,27085
24.02775,25725
24.03402,22916
24.04027,23891
24.04652,23675
24.05277,25126
24.05903,29070
24.06528,33724
24.07153,41018
24.07780,47603
24.08405,42337
24.09030,36710
24.09657,31172
24.10282,26678
24.10907,27082
24.11533,27134
24.12158,26524
24.12783,26588
24.13410,25553
24.14035,23332
24.14660,25587
24.15287,25021
24.15912,27516
24.16537,25243
24.17163,24812
24.17788,24743
24.18413,24467
24.19040,26525
24.19665,34112
24.20290,60403
24.20917,116266
24.21542,243014
24.22167,368495
24.22793,396681
24.23418,325460
24.24043,214389
24.24670,120705
24.25295,69650
24.25920,51485
24.26545,39494
24.27172,35634
24.27797,32003
24.28422,31285
24.29048,30391
24.29673,30053
24.30298,28919
24.30925,29304
24.31550,27023
24.32175,28275
24.32802,29084
24.33427,27266
24.34052,27899
24.34678,28073
24.35303,28241
24.35928,28661
24.36555,29493
24.37180,28181
24.37805,26358
24.38432,26591
24.39057,25294
24.39682,26775
24.40308,24618
24.40933,25770
24.41558,25585
24.42185,29297
24.42810,28255
24.43435,27352
24.44062,27999
24.44687,26905
24.45312,27106
24.45938,27033
24.46563,26457
24.47188,25342
24.47815,27248
24.48440,28695
24.49065,24351
24.49690,25513
24.50317,25842
24.50942,27305
24.51567,28453
24.52193,26805
24.52818,27521
24.53443,27452
24.54070,25876
24.54695,26189
24.55320,25205
24.55947,25516
24.56572,26329
24.57197,29006
24.57823,29634
24.58448,30963
24.59073,31094
24.59700,30244
24.60325,29292
24.60950,28730
24.61577,26980
24.62202,29206
24.62827,29188
24.63453,29315
24.64078,29569
24.64703,29362
24.65330,29898
24.65955,28235
24.66580,26850
24.67207,27001
24.67832,27710
24.68457,26870
24.69083,27860
24.69708,27120
24.70333,25783
24.70958,26944
24.71585,25251
24.72210,26291
24.72835,26436
24.73462,25699
24.74087,27936
24.74712,24994
24.75338,26891
24.75963,26207
24.76588,26755
24.77215,28700
24.77840,27014
24.78465,27112
24.79092,26910
24.79717,26759
24.80342,26572
24.80968,27656
24.81593,26273
24.82218,28041
24.82845,26289
24.83470,27713
24.84095,27712
24.84722,27734
24.85347,26026
24.85972,27236
24.86598,28377
24.87223,26773
24.87848,28153
24.88475,26744
24.89100,27128
24.89725,26883
24.90352,28021
24.90977,26847
24.91602,27980
24.92227,28414
24.92853,27558
24.93478,28108
24.94103,27272
24.94730,28346
24.95355,28818
24.95980,26988
24.96607,29224
24.97232,30300
24.97857,27910
24.98483,28732
24.99108,28909
24.99733,27689
25.00360,31080
25.00985,27497
25.01610,28969
25.02237,27845
25.02862,28737
25.03487,28428
25.04113,27848
25.04738,28220
25.05363,29695
25.05990,27734
25.06615,27801
25.07240,28684
25.07867,29915
25.08492,28701
25.09117,31737
25.09743,31478
25.10368,27953
25.10993,29027
25.11620,28393
25.12245,28817
25.12870,30165
25.13497,29523
25.14122,30138
25.14747,28675
25.15372,30000
25.15998,30082
25.16623,30537
25.17248,29547
25.17875,28729
25.18500,28569
25.19125,29561
25.19752,29743
25.20377,28121
25.21002,29596
25.21628,29719
25.22253,29436
25.22878,29784
25.23505,30688
25.24130,30187
25.24755,29392
25.25382,30822
25.26007,29986
25.26632,30062
25.27258,30774
25.27883,29882
25.28508,29565
25.29135,29574
25.29760,33052
25.30385,29926
25.31012,31377
25.31637,31492
25.32262,32780
25.32888,30176
25.33513,31759
25.34138,31977
25.34765,32124
25.35390,30777
25.36015,32911
25.36640,31266
25.37267,30901
25.37892,32406
25.38517,31548
25.39143,34943
25.39768,42208
25.40393,55649
25.41020,72637
25.41645,71291
25.42270,67829
25.42897,52977
25.43522,43750
25.44147,36437
25.44773,37264
25.45398,35066
25.46023,34565
25.46650,35336
25.47275,33957
25.47900,35309
25.48527,33997
25.49152,34297
25.49777,34511
25.50403,33790
25.51028,35632
25.51653,34139
25.52280,34635
25.52905,34991
25.53530,34541
25.54157,34034
25.54782,36699
25.55407,34901
25.56033,34728
25.56658,35128
25.57283,34688
25.57910,34801
25.58535,35042
25.59160,35716
25.59785,36264
25.60412,34700
25.61037,36581
25.61662,37130
25.62288,36316
25.62913,32991
25.63538,35208
25.64165,36730
25.64790,35611
25.65415,35902
25.66042,36259
25.66667,34800
25.67292,34673
25.67918,35220
25.68543,33324
25.69168,36871
25.69795,36364
25.70420,35147
25.71045,36368
25.71672,35724
25.72297,35721
25.72922,34763
25.73548,36322
25.74173,37147
25.74798,37015
25.75425,36369
25.76050,35863
25.76675,37192
25.77302,36417
25.77927,36851
25.78552,38572
25.79178,36927
25.79803,37744
25.80428,38054
25.81053,37697
25.81680,37942
25.82305,37324
25.82930,38271
25.83557,36987
25.84182,37102
25.84807,35029
25.85433,37603
25.86058,38433
25.86683,39696
25.87310,36618
25.87935,38636
25.88560,37287
25.89187,40040
25.89812,37614
25.90437,38210
25.91063,36481
25.91688,37709
25.92313,38193
25.92940,38722
25.93565,37671
25.94190,38552
25.94817,37726
25.95442,38342
25.96067,39129
25.96693,39591
25.97318,40066
25.97943,42660
25.98570,38685
25.99195,38821
25.99820,39462
26.00447,39933
26.01072,39811
26.01697,38679
26.02323,40357
26.02948,39898
26.03573,39815
26.04198,40264
26.04825,40713
26.05450,41064
26.06075,40498
26.06702,40673
26.07327,40978
26.07952,40802
26.08578,40512
26.09203,40941
26.09828,41901
26.10455,39829
26.11080,41702
26.11705,40641
26.12332,40468
26.12957,40285
26.13582,39418
26.14208,41712
26.14833,40404
26.15458,40050
26.16085,43669
26.16710,43305
26.17335,41277
26.17962,42637
26.18587,41378
26.19212,44286
26.19838,43177
26.20463,43356
26.21088,43739
26.21715,42638
26.22340,42717
26.22965,42983
26.23592,42940
26.24217,42522
26.24842,43656
26.25467,42241
26.26093,44572
26.26718,45033
26.27343,43346
26.27970,43609
26.28595,44118
26.29220,45627
26.29847,43977
26.30472,42937
26.31097,43312
26.31723,45575
26.32348,46496
26.32973,46503
26.33600,45426
26.34225,43739
26.34850,44259
26.35477,45957
26.36102,46338
26.36727,47016
26.37353,44451
26.37978,47598
26.38603,45477
26.39230,46363
26.39855,47489
26.40480,44969
26.41107,47884
26.41732,46061
26.42357,46477
26.42983,49268
26.43608,49544
26.44233,45530
26.44860,48796
26.45485,48732
26.46110,48110
26.46737,47025
26.47362,50461
26.47987,48911
26.48612,48521
26.49238,49431
26.49863,50760
26.50488,49041
26.51115,48482
26.51740,49464
26.52365,49624
26.52992,47882
26.53617,52208
26.54242,50629
26.54868,48869
26.55493,49488
26.56118,51554
26.56745,50400
26.57370,49394
26.57995,52818
26.58622,51287
26.59247,50388
26.59872,50223
26.60498,51376
26.61123,51641
26.61748,51234
26.62375,52316
26.63000,51346
26.63625,51381
26.64252,52835
26.64877,56834
26.65502,65294
26.66128,81881
26.66753,98393
26.67378,104060
26.68005,95696
26.68630,80806
26.69255,70456
26.69880,61546
26.70507,58659
26.71132,59244
26.71757,58422
26.72383,58092
26.73008,56865
26.73633,57579
26.74260,55714
26.74885,58011
26.75510,55609
26.76137,57266
26.76762,58347
26.77387,57714
26.78013,57093
26.78638,56541
26.79263,58647
26.79890,57727
26.80515,58593
26.81140,57842
26.81767,58082
26.82392,59289
26.83017,58507
26.83643,56839
26.84268,58732
26.84893,57854
26.85520,56679
26.86145,59095
26.86770,58251
26.87397,59430
26.88022,58287
26.88647,60515
26.89273,58901
26.89898,60033
26.90523,65059
26.91148,75651
26.91775,90779
26.92400,103486
26.93025,103906
26.93652,96217
26.94277,83322
26.94902,71805
26.95528,66793
26.96153,65058
26.96778,63750
26.97405,64806
26.98030,62948
26.98655,62504
26.99282,63337
26.99907,64187
27.00532,64014
27.01158,62267
27.01783,65247
27.02408,64422
27.03035,66306
27.03660,62814
27.04285,65698
27.04912,68468
27.05537,66831
27.06162,64984
27.06788,65493
27.07413,65437
27.08038,63445
27.08665,63868
27.09290,64719
27.09915,62759
27.10542,66379
27.11167,67910
27.11792,65429
27.12418,66974
27.13043,65739
27.13668,70803
27.14293,66730
27.14920,68568
27.15545,67304
27.16170,69833
27.16797,68353
27.17422,66527
27.18047,69805
27.18673,71725
27.19298,67938
27.19923,67498
27.20550,70362
27.21175,71349
27.21800,71319
27.22427,67852
27.23052,70825
27.23677,70975
27.24303,71818
27.24928,69839
27.25553,69728
27.26180,72494
27.26805,74405
27.27430,71775
27.28057,75122
27.28682,73687
27.29307,72960
27.29933,73578
27.30558,71412
27.31183,76390
27.31810,74264
27.32435,73312
27.33060,75290
27.33687,74220
27.34312,75926
27.34937,73592
27.35562,73242
27.36188,72282
27.36813,75221
27.37438,78704
27.38065,74730
27.38690,74957
27.39315,77150
27.39942,72687
27.40567,74470
27.41192,74567
27.41818,73727
27.42443,77817
27.43068,77581
27.43695,77149
27.44320,74713
27.44945,74308
27.45572,74548
27.46197,78588
27.46822,77935
27.47448,77071
27.48073,79687
27.48698,78544
27.49325,77240
27.49950,78363
27.50575,78909
27.51202,78860
27.51827,79121
27.52452,78597
27.53078,80705
27.53703,79601
27.54328,81522
27.54955,81677
27.55580,82427
27.56205,83027
27.56830,81408
27.57457,81865
27.58082,81053
27.58707,79378
27.59333,82066
27.59958,80771
27.60583,79711
27.61210,81764
27.61835,81532
27.62460,82130
27.63087,79436
27.63712,82612
27.64337,83000
27.64963,80472
27.65588,84992
27.66213,88277
27.66840,85871
27.67465,86281
27.68090,88021
27.68717,85213
27.69342,84389
27.69967,84625
27.70593,82657
27.71218,84372
27.71843,83315
27.72470,88204
27.73095,84770
27.73720,83719
27.74347,87625
27.74972,84966
27.75597,85019
27.76223,88182
27.76848,85926
27.77473,85626
27.78100,88790
27.78725,87251
27.79350,86674
27.79975,88336
27.80602,89779
27.81227,87959
27.81852,88961
27.82478,89945
27.83103,89745
27.83728,85747
27.84355,91143
27.84980,95042
27.85605,107424
27.86232,114398
27.86857,126405
27.87482,128799
27.88108,117446
27.88733,109115
27.89358,98176
27.89985,95305
27.90610,94905
27.91235,90832
27.91862,93179
27.92487,91149
27.93112,95005
27.93738,93327
27.94363,93400
27.94988,92785
27.95615,94060
27.96240,91595
27.96865,92456
27.97492,94775
27.98117,94325
27.98742,91656
27.99368,93444
27.99993,91285
28.00618,91693
28.01243,91886
28.01870,94979
28.02495,95682
28.03120,93538
28.03747,92340
28.04372,93432
28.04997,95045
28.05623,96209
28.06248,94111
28.06873,90370
28.07500,92141
28.08125,95692
28.08750,94831
28.09377,94945
28.10002,97181
28.10627,93830
28.11253,95835
28.11878,96525
28.12503,95377
28.13130,94648
28.13755,92412
28.14380,94761
28.15007,95924
28.15632,97408
28.16257,96082
28.16883,93875
28.17508,92984
28.18133,98224
28.18760,96412
28.19385,94785
28.20010,97899
28.20637,98368
28.21262,97453
28.21887,95160
28.22513,99956
28.23138,99047
28.23763,99107
28.24388,98398
28.25015,98161
28.25640,99762
28.26265,100157
28.26892,98900
28.27517,101316
28.28142,103003
28.28768,102987
28.29393,107102
28.30018,107704
28.30645,108208
28.31270,113832
28.31895,112288
28.32522,117295
28.33147,119669
28.33772,121048
28.34398,129776
28.35023,130775
28.35648,137262
28.36275,144781
28.36900,141282
28.37525,155021
28.38152,156798
28.38777,158768
28.39402,153903
28.40028,160814
28.40653,156737
28.41278,156457
28.41905,169329
28.42530,167224
28.43155,166685
28.43782,165593
28.44407,162483
28.45032,157736
28.45657,150484
28.46283,149702
28.46908,141654
28.47533,137773
28.48160,135813
28.48785,135395
28.49410,128919
28.50037,126920
28.50662,125884
28.51287,121568
28.51913,120237
28.52538,113482
28.53163,113915
28.53790,113252
28.54415,111545
28.55040,109528
28.55667,107897
28.56292,108930
28.56917,106635
28.57543,106465
28.58168,104467
28.58793,105686
28.59420,105628
28.60045,105960
28.60670,106311
28.61297,105223
28.61922,106544
28.62547,106091
28.63173,104316
28.63798,105128
28.64423,103769
28.65050,104656
28.65675,106494
28.66300,106284
28.66927,104872
28.67552,103722
28.68177,104949
28.68802,103709
28.69428,105975
28.70053,108759
28.70678,106874
28.71305,103995
28.71930,100713
28.72555,106040
28.73182,103583
28.73807,109461
28.74432,100970
28.75058,107034
28.75683,106102
28.76308,103718
28.76935,106686
28.77560,101973
28.78185,105186
28.78812,103529
28.79437,104574
28.80062,103962
28.80688,102232
28.81313,104579
28.81938,104414
28.82565,104889
28.83190,103404
28.83815,102895
28.84442,103481
28.85067,102836
28.85692,103666
28.86318,103792
28.86943,102496
28.87568,104731
28.88195,104742
28.88820,104159
28.89445,101938
28.90070,104464
28.90697,101898
28.91322,107276
28.91947,101948
28.92573,103977
28.93198,98152
28.93823,104420
28.94450,100290
28.95075,104487
28.95700,105463
28.96327,103304
28.96952,101653
28.97577,104894
28.98203,102122
28.98828,99521
28.99453,101644
29.00080,106784
29.00705,106023
29.01330,105007
29.01957,104437
29.02582,98677
29.03207,103424
29.03833,100445
29.04458,105390
29.05083,103561
29.05710,102766
29.06335,101041
29.06960,102791
29.07587,103249
29.08212,102245
29.08837,107605
29.09463,101950
29.10088,101937
29.10713,100425
29.11340,104608
29.11965,100233
29.12590,103790
29.13215,104384
29.13842,101851
29.14467,101751
29.15092,102828
29.15718,105187
29.16343,101666
29.16968,101292
29.17595,102508
29.18220,101992
29.18845,100677
29.19472,105881
29.20097,103743
29.20722,101796
29.21348,100677
29.21973,103955
29.22598,103200
29.23225,107445
29.23850,110382
29.24475,112250
29.25102,113500
29.25727,114351
29.26352,113405
29.26978,111350
29.27603,108002
29.28228,103182
29.28855,102135
29.29480,103977
29.30105,104351
29.30732,103528
29.31357,104178
29.31982,104373
29.32608,104755
29.33233,103268
29.33858,104541
29.34483,102221
29.35110,101016
29.35735,107564
29.36360,100737
29.36987,101191
29.37612,102184
29.38237,102671
29.38863,99814
29.39488,100513
29.40113,101887
29.40740,101952
29.41365,104305
29.41990,99921
29.42617,105940
29.43242,102870
29.43867,103985
29.44493,104373
29.45118,102110
29.45743,102457
29.46370,99578
29.46995,99027
29.47620,101353
29.48247,99340
29.48872,100268
29.49497,98483
29.50123,100073
29.50748,101827
29.51373,100380
29.52000,101272
29.52625,101214
29.53250,100784
29.53877,102819
29.54502,103240
29.55127,100269
29.55752,101709
29.56378,98186
29.57003,99250
29.57628,102618
29.58255,102530
29.58880,97623
29.59505,97084
29.60132,101278
29.60757,97276
29.61382,103638
29.62008,104172
29.62633,102924
29.63258,98483
29.63885,96893
29.64510,103551
29.65135,100860
29.65762,100760
29.66387,99476
29.67012,100070
29.67638,99616
29.68263,100746
29.68888,102609
29.69515,101500
29.70140,99774
29.70765,100254
29.71392,100422
29.72017,100473
29.72642,102645
29.73268,98641
29.73893,103004
29.74518,100765
29.75145,99597
29.75770,99289
29.76395,96454
29.77022,100750
29.77647,103763
29.78272,100380
29.78897,101623
29.79523,102398
29.80148,100288
29.80773,102122
29.81400,100346
29.82025,99399
29.82650,101388
29.83277,99924
29.83902,106137
29.84527,102392
29.85153,101649
29.85778,101511
29.86403,99631
29.87030,101543
29.87655,99826
29.88280,97900
29.88907,100944
29.89532,97426
29.90157,103435
29.90783,104168
29.91408,102358
29.92033,100777
29.92660,100343
29.93285,99750
29.93910,102758
29.94537,101175
29.95162,103367
29.95787,100599
29.96413,100596
29.97038,99695
29.97663,101760
29.98290,100336
29.98915,96988
29.99540,100605
30.00165,103132
30.00792,101309
30.01417,100011
30.02042,98177
30.02668,99158
30.03293,97402
30.03918,98474
30.04545,99635
30.05170,99952
30.05795,100841
30.06422,100700
30.07047,97616
30.07672,97443
30.08298,98700
30.08923,99669
30.09548,98897
30.10175,98124
30.10800,98308
30.11425,100590
30.12052,101675
30.12677,99763
30.13302,96225
30.13928,101987
30.14553,99697
30.15178,100205
30.15805,97652
30.16430,100764
30.17055,97790
30.17682,97943
30.18307,98447
30.18932,97912
30.19558,102163
30.20183,102298
30.20808,98364
30.21433,99596
30.22060,99720
30.22685,101672
30.23310,99785
30.23937,100022
30.24562,99534
30.25187,98208
30.25813,100010
30.26438,98363
30.27063,101293
30.27690,98486
30.28315,98567
30.28940,99411
30.29567,98665
30.30192,98970
30.30817,100483
30.31443,97954
30.32068,98665
30.32693,97034
30.33320,100897
30.33945,98831
30.34570,97023
30.35197,96364
30.35822,96499
30.36447,98848
30.37073,97691
30.37698,100957
30.38323,99814
30.38950,99733
30.39575,98240
30.40200,96070
30.40827,97895
30.41452,100126
30.42077,97721
30.42703,98720
30.43328,94514
30.43953,101464
30.44578,100297
30.45205,97767
30.45830,97524
30.46455,96312
30.47082,99083
30.47707,99972
30.48332,98159
30.48958,97968
30.49583,94047
30.50208,96595
30.50835,96744
30.51460,97896
30.52085,99267
30.52712,100784
30.53337,98183
30.53962,99495
30.54588,103357
30.55213,96712
30.55838,102758
30.56465,98119
30.57090,98520
30.57715,97284
30.58342,97549
30.58967,99328
30.59592,96369
30.60218,100882
30.60843,98064
30.61468,97988
30.62095,95555
30.62720,95699
30.63345,97092
30.63972,97422
30.64597,98439
30.65222,97250
30.65847,97575
30.66473,96820
30.67098,96567
30.67723,101098
30.68350,98965
30.68975,98233
30.69600,98363
30.70227,96465
30.70852,98212
30.71477,97084
30.72103,97530
30.72728,97785
30.73353,95005
30.73980,100708
30.74605,95486
30.75230,98414
30.75857,99535
30.76482,101163
30.77107,98803
30.77733,98518
30.78358,98937
30.78983,101621
30.79610,99892
30.80235,99741
30.80860,98988
30.81487,99293
30.82112,96670
30.82737,96350
30.83363,101383
30.83988,99419
30.84613,98394
30.85240,97856
30.85865,102799
30.86490,98988
30.87117,100693
30.87742,99175
30.88367,99830
30.88992,100929
30.89618,98076
30.90243,99203
30.90868,98373
30.91495,95792
30.92120,98905
30.92745,98908
30.93372,99049
30.93997,97319
30.94622,100022
30.95248,94503
30.95873,99070
30.96498,96270
30.97125,97283
30.97750,98245
30.98375,96360
30.99002,99377
30.99627,99257
31.00252,102789
31.00878,100687
31.01503,99201
31.02128,99772
31.02755,97613
31.03380,95111
31.04005,100321
31.04632,97043
31.05257,99233
31.05882,97091
31.06508,95459
31.07133,95627
31.07758,97001
31.08385,98458
31.09010,97709
31.09635,100295
31.10260,96319
31.10887,97926
31.11512,96770
31.12137,99249
31.12763,97511
31.13388,96898
31.14013,99671
31.14640,99877
31.15265,95159
31.15890,99011
31.16517,96608
31.17142,94805
31.17767,98796
31.18393,93369
31.19018,99143
31.19643,98534
31.20270,95693
31.20895,97052
31.21520,97343
31.22147,95046
31.22772,98194
31.23397,97294
31.24023,97697
31.24648,97982
31.25273,98107
31.25900,98853
31.26525,97918
31.27150,96212
31.27777,98094
31.28402,95383
31.29027,94095
31.29653,96648
31.30278,94562
31.30903,95383
31.31530,96645
31.32155,99418
31.32780,92940
31.33405,98500
31.34032,96218
31.34657,98148
31.35282,98998
31.35908,96911
31.36533,94397
31.37158,98016
31.37785,97017
31.38410,99745
31.39035,97212
31.39662,95660
31.40287,99729
31.40912,97121
31.41538,101439
31.42163,98751
31.42788,95929
31.43415,99539
31.44040,98321
31.44665,92988
31.45292,96541
31.45917,98970
31.46542,96880
31.47168,97748
31.47793,95282
31.48418,95157
31.49045,96877
31.49670,100407
31.50295,95680
31.50922,97446
31.51547,97665
31.52172,95986
31.52798,94301
31.53423,98473
31.54048,98720
31.54673,97310
31.55300,99894
31.55925,95615
31.56550,97607
31.57177,99891
31.57802,95048
31.58427,100311
31.59053,97586
31.59678,95918
31.60303,97263
31.60930,96855
31.61555,98313
31.62180,100756
31.62807,96361
31.63432,95827
31.64057,97367
31.64683,94796
31.65308,98043
31.65933,96511
31.66560,99428
31.67185,94934
31.67810,95379
31.68437,93640
31.69062,97392
31.69687,94754
31.70313,98945
31.70938,95054
31.71563,96555
31.72190,96573
31.72815,94102
31.73440,92351
31.74067,92087
31.74692,96845
31.75317,96502
31.75943,100542
31.76568,95038
31.77193,92913
31.77818,94774
31.78445,97625
31.79070,94713
31.79695,97076
31.80322,95884
31.80947,97633
31.81572,95056
31.82198,91673
31.82823,94941
31.83448,97042
31.84075,97752
31.84700,96684
31.85325,96276
31.85952,97330
31.86577,97558
31.87202,96529
31.87828,95567
31.88453,94415
31.89078,96374
31.89705,94707
31.90330,97260
31.90955,93010
31.91582,95324
31.92207,94685
31.92832,96007
31.93458,94299
31.94083,94577
31.94708,93651
31.95335,95781
31.95960,92522
31.96585,96275
31.97212,95562
31.97837,95451
31.98462,94673
31.99087,92858
31.99713,92885
32.00338,95977
32.00963,95898
32.01590,96322
32.02215,95665
32.02840,93423
32.03467,95112
32.04092,93656
32.04717,97972
32.05343,92418
32.05968,96089
32.06593,93063
32.07220,95918
32.07845,95313
32.08470,91511
32.09097,94331
32.09722,93322
32.10347,100356
32.10973,95370
32.11598,99099
32.12223,97467
32.12850,94128
32.13475,96063
32.14100,93240
32.14727,93475
32.15352,94591
32.15977,96199
32.16603,93658
32.17228,97275
32.17853,94414
32.18480,94764
32.19105,96629
32.19730,93098
32.20355,93576
32.20982,94763
32.21607,92856
32.22232,93986
32.22858,96332
32.23483,94649
32.24108,94979
32.24735,96656
32.25360,97341
32.25985,93171
32.26612,93883
32.27237,94540
32.27862,95338
32.28488,93294
32.29113,95791
32.29738,94122
32.30365,94647
32.30990,92143
32.31615,92869
32.32242,94140
32.32867,91841
32.33492,93941
32.34118,92920
32.34743,91341
32.35368,94124
32.35995,95443
32.36620,95134
32.37245,95798
32.37872,94115
32.38497,94736
32.39122,92858
32.39748,93783
32.40373,93620
32.40998,94772
32.41625,95046
32.42250,93661
32.42875,93990
32.43500,93215
32.44127,97189
32.44752,94876
32.45377,92873
32.46003,97674
32.46628,94991
32.47253,92435
32.47880,95706
32.48505,94206
32.49130,93422
32.49757,93276
32.50382,95311
32.51007,93247
32.51633,94498
32.52258,94499
32.52883,94140
32.53510,92294
32.54135,95853
32.54760,91669
32.55387,95523
32.56012,95481
32.56637,92051
32.57263,95128
32.57888,95471
32.58513,94603
32.59140,93261
32.59765,92414
32.60390,94029
32.61017,93651
32.61642,90111
32.62267,95863
32.62893,96059
32.63518,91819
32.64143,96090
32.64768,93447
32.65395,93891
32.66020,93307
32.66645,94143
32.67272,93403
32.67897,93145
32.68522,93824
32.69148,92198
32.69773,93637
32.70398,95111
32.71025,93316
32.71650,93833
32.72275,94471
32.72902,92562
32.73527,91871
32.74152,93201
32.74778,95049
32.75403,94389
32.76028,91714
32.76655,92699
32.77280,93870
32.77905,94731
32.78532,94708
32.79157,97152
32.79782,92494
32.80408,93758
32.81033,90403
32.81658,96522
32.82285,94575
32.82910,92185
32.83535,92703
32.84162,92499
32.84787,93364
32.85412,94179
32.86037,93685
32.86663,92987
32.87288,92947
32.87913,93047
32.88540,89851
32.89165,97330
32.89790,94720
32.90417,95163
32.91042,94423
32.91667,95049
32.92293,93263
32.92918,93342
32.93543,92869
32.94170,96798
32.94795,91183
32.95420,94137
32.96047,92720
32.96672,93423
32.97297,92360
32.97923,90658
32.98548,90498
32.99173,97387
32.99800,97780
33.00425,96197
33.01050,91660
33.01677,90741
33.02302,94946
33.02927,93310
33.03553,97374
33.04178,94746
33.04803,93120
33.05430,91292
33.06055,94170
33.06680,96803
33.07307,91521
33.07932,92513
33.08557,94865
33.09182,92814
33.09808,92717
33.10433,94006
33.11058,91084
33.11685,94919
33.12310,90933
33.12935,91853
33.13562,91163
33.14187,89448
33.14812,92884
33.15438,91733
33.16063,94104
33.16688,90279
33.17315,92641
33.17940,94018
33.18565,92630
33.19192,91435
33.19817,93596
33.20442,92669
33.21068,89941
33.21693,92461
33.22318,94114
33.22945,92983
33.23570,90920
33.24195,93849
33.24822,91654
33.25447,94832
33.26072,92830
33.26698,92335
33.27323,90283
33.27948,92099
33.28575,94606
33.29200,93313
33.29825,92678
33.30450,91319
33.31077,91809
33.31702,90430
33.32327,91113
33.32953,92082
33.33578,92293
33.34203,92117
33.34830,94605
33.35455,91253
33.36080,90438
33.36707,93050
33.37332,93867
33.37957,91502
33.38583,93970
33.39208,91243
33.39833,91235
33.40460,91645
33.41085,91691
33.41710,92874
33.42337,91963
33.42962,94095
33.43587,93552
33.44213,89574
33.44838,90730
33.45463,92136
33.46090,92919
33.46715,92314
33.47340,92411
33.47967,92367
33.48592,93910
33.49217,92116
33.49843,91324
33.50468,94059
33.51093,88114
33.51720,89835
33.52345,95966
33.52970,94254
33.53595,93125
33.54222,90670
33.54847,91913
33.55472,92927
33.56098,94113
33.56723,93399
33.57348,87627
33.57975,91035
33.58600,92984
33.59225,93585
33.59852,92919
33.60477,91627
33.61102,92314
33.61728,93068
33.62353,92062
33.62978,92023
33.63605,88934
33.64230,92746
33.64855,93568
33.65482,92882
33.66107,94595
33.66732,90867
33.67358,89228
33.67983,88955
33.68608,90126
33.69235,90802
33.69860,95392
33.70485,94869
33.71112,91118
33.71737,90287
33.72362,88395
33.72988,89555
33.73613,89728
33.74238,90401
33.74863,90579
33.75490,89903
33.76115,89671
33.76740,92629
33.77367,92494
33.77992,92145
33.78617,91955
33.79243,92434
33.79868,91864
33.80493,92272
33.81120,90844
33.81745,92147
33.82370,88086
33.82997,90139
33.83622,89290
33.84247,91884
33.84873,91190
33.85498,94246
33.86123,92052
33.86750,93308
33.87375,91288
33.88000,91523
33.88627,94006
33.89252,91558
33.89877,91016
33.90503,92614
33.91128,89034
33.91753,89986
33.92380,90478
33.93005,93482
33.93630,91429
33.94257,89397
33.94882,90124
33.95507,90010
33.96133,90000
33.96758,91263
33.97383,87265
33.98008,90039
33.98635,89581
33.99260,89177
33.99885,91403
34.00512,90459
34.01137,93085
34.01762,91095
34.02388,87678
34.03013,89391
34.03638,91161
34.04265,93369
34.04890,89588
34.05515,89402
34.06142,92306
34.06767,92077
34.07392,92203
34.08018,91498
34.08643,93212
34.09268,93741
34.09895,91512
34.10520,88517
34.11145,89897
34.11772,92436
34.12397,88502
34.13022,88721
34.13648,93155
34.14273,94692
34.14898,92816
34.15525,88570
34.16150,91047
34.16775,89162
34.17402,90377
34.18027,89630
34.18652,92358
34.19277,89339
34.19903,89473
34.20528,88993
34.21153,88377
34.21780,91992
34.22405,88826
34.23030,91064
34.23657,91689
34.24282,91004
34.24907,90266
34.25533,90869
34.26158,89441
34.26783,88766
34.27410,86672
34.28035,90547
34.28660,91927
34.29287,91089
34.29912,91770
34.30537,90613
34.31163,93102
34.31788,90942
34.32413,93783
34.33040,89245
34.33665,91905
34.34290,86834
34.34917,88926
34.35542,89373
34.36167,91040
34.36793,93234
34.37418,89458
34.38043,89869
34.38670,88235
34.39295,88357
34.39920,89924
34.40547,89752
34.41172,91029
34.41797,90500
34.42422,90254
34.43048,90501
34.43673,93306
34.44298,87987
34.44925,89642
34.45550,93224
34.46175,90159
34.46802,90525
34.47427,88117
34.48052,89473
34.48678,90497
34.49303,90190
34.49928,93455
34.50555,92455
34.51180,90081
34.51805,92696
34.52432,88397
34.53057,91457
34.53682,89082
34.54308,92234
34.54933,94370
34.55558,86094
34.56185,89216
34.56810,88566
34.57435,91976
34.58062,91355
34.58687,89734
34.59312,89574
34.59938,87315
34.60563,90199
34.61188,91685
34.61815,89888
34.62440,91225
34.63065,90371
34.63690,90110
34.64317,90522
34.64942,91962
34.65567,91898
34.66193,88808
34.66818,87878
34.67443,91011
34.68070,89466
34.68695,92336
34.69320,89898
34.69947,92227
34.70572,92060
34.71197,89303
34.71823,88786
34.72448,92891
34.73073,90184
34.73700,91793
34.74325,88860
34.74950,89326
34.75577,88610
34.76202,89932
34.76827,89611
34.77453,90381
34.78078,90642
34.78703,94657
34.79330,88800
34.79955,90059
34.80580,89241
34.81207,87551
34.81832,88382
34.82457,88867
34.83083,92764
34.83708,91990
34.84333,89818
34.84958,90872
34.85585,91245
34.86210,87109
34.86835,84856
34.87462,90284
34.88087,88014
34.88712,87030
34.89338,93498
34.89963,84976
34.90588,86517
34.91215,89354
34.91840,87179
34.92465,89728
34.93092,87828
34.93717,88020
34.94342,89259
34.94968,90758
34.95593,90022
34.96218,89427
34.96845,90476
34.97470,88617
34.98095,90213
34.98722,89471
34.99347,89808
34.99972,88854
35.00598,90151
35.01223,90766
35.01848,89862
35.02475,92604
35.03100,88266
35.03725,84378
35.04352,89780
35.04977,91664
35.05602,90225
35.06228,87880
35.06853,88959
35.07478,88974
35.08103,90161
35.08730,89958
35.09355,90670
35.09980,90292
35.10607,87624
35.11232,89432
35.11857,87939
35.12483,88517
35.13108,90446
35.13733,87676
35.14360,89925
35.14985,88444
35.15610,88179
35.16237,88327
35.16862,87276
35.17487,87674
35.18113,88550
35.18738,89608
35.19363,89309
35.19990,88800
35.20615,87649
35.21240,86085
35.21867,88682
35.22492,89404
35.23117,87401
35.23743,90401
35.24368,91971
35.24993,89683
35.25620,90147
35.26245,88690
35.26870,87463
35.27497,87026
35.28122,88803
35.28747,88071
35.29372,88169
35.29998,88219
35.30623,90086
35.31248,88610
35.31875,90863
35.32500,89233
35.33125,88072
35.33752,86850
35.34377,90280
35.35002,88536
35.35628,87202
35.36253,89763
35.36878,88707
35.37505,90856
35.38130,89192
35.38755,88547
35.39382,88227
35.40007,86649
35.40632,89358
35.41258,90080
35.41883,87241
35.42508,89500
35.43135,90950
35.43760,89318
35.44385,87598
35.45012,88171
35.45637,87963
35.46262,86259
35.46888,89984
35.47513,92063
35.48138,88280
35.48765,88113
35.49390,89531
35.50015,86558
35.50640,87866
35.51267,87780
35.51892,89978
35.52517,88696
35.53143,85152
35.53768,88243
35.54393,88065
35.55020,88328
35.55645,90809
35.56270,85528
35.56897,87916
35.57522,88407
35.58147,87329
35.58773,88684
35.59398,87626
35.60023,89420
35.60650,88139
35.61275,88316
35.61900,89186
35.62527,90620
35.63152,86185
35.63777,87169
35.64403,87306
35.65028,88545
35.65653,88169
35.66280,88506
35.66905,86317
35.67530,86762
35.68157,87511
35.68782,86933
35.69407,86792
35.70033,88420
35.70658,88078
35.71283,87383
35.71910,84087
35.72535,86364
35.73160,90814
35.73785,88621
35.74412,87540
35.75037,87258
35.75662,90290
35.76288,88110
35.76913,90307
35.77538,90044
35.78165,90446
35.78790,87418
35.79415,90632
35.80042,89339
35.80667,91428
35.81292,91374
35.81918,88857
35.82543,86226
35.83168,88280
35.83795,90120
35.84420,88834
35.85045,85928
35.85672,89004
35.86297,91067
35.86922,87455
35.87548,91425
35.88173,86346
35.88798,88265
35.89425,87146
35.90050,88102
35.90675,85847
35.91302,87077
35.91927,86230
35.92552,88898
35.93178,86910
35.93803,88707
35.94428,87951
35.95053,88800
35.95680,88824
35.96305,84265
35.96930,86287
35.97557,88019
35.98182,86543
35.98807,87661
35.99433,88142
36.00058,86807
36.00683,86376
36.01310,87625
36.01935,88502
36.02560,89691
36.03187,88583
36.03812,87125
36.04437,89135
36.05063,86741
36.05688,83618
36.06313,84021
36.06940,87630
36.07565,87463
36.08190,87841
36.08817,88182
36.09442,84945
36.10067,88766
36.10693,86733
36.11318,88281
36.11943,87168
36.12570,88411
36.13195,86692
36.13820,85590
36.14447,88838
36.15072,85490
36.15697,87606
36.16322,85461
36.16948,86968
36.17573,89122
36.18198,87844
36.18825,87714
36.19450,85791
36.20075,88394
36.20702,89017
36.21327,91252
36.21952,88679
36.22578,87211
36.23203,87760
36.23828,84442
36.24455,87552
36.25080,88077
36.25705,88767
36.26332,87951
36.26957,86752
36.27582,88773
36.28208,86196
36.28833,88832
36.29458,87925
36.30085,85281
36.30710,89136
36.31335,87339
36.31962,87043
36.32587,88492
36.33212,88040
36.33838,87433
36.34463,86958
36.35088,89702
36.35715,88300
36.36340,86858
36.36965,87759
36.37592,87868
36.38217,88406
36.38842,87135
36.39467,87287
36.40093,85506
36.40718,85054
36.41343,85678
36.41970,85760
36.42595,87973
36.43220,89727
36.43847,84631
36.44472,85974
36.45097,85905
36.45723,85978
36.46348,84402
36.46973,86562
36.47600,85300
36.48225,86572
36.48850,87425
36.49477,86182
36.50102,89245
36.50727,83321
36.51353,90217
36.51978,88655
36.52603,85813
36.53230,86069
36.53855,88262
36.54480,84165
36.55107,87499
36.55732,87537
36.56357,88850
36.56983,84311
36.57608,88155
36.58233,90023
36.58860,88085
36.59485,86668
36.60110,86947
36.60735,85938
36.61362,86243
36.61987,87767
36.62612,87023
36.63238,85128
36.63863,86418
36.64488,85219
36.65115,83431
36.65740,88127
36.66365,85921
36.66992,86786
36.67617,87657
36.68242,87109
36.68868,86966
36.69493,85487
36.70118,88445
36.70745,83377
36.71370,86540
36.71995,85754
36.72622,86972
36.73247,84872
36.73872,84689
36.74498,85930
36.75123,86662
36.75748,88987
36.76375,85350
36.77000,86693
36.77625,89999
36.78252,86326
36.78877,87982
36.79502,85989
36.80128,85609
36.80753,83789
36.81378,86519
36.82005,85815
36.82630,87778
36.83255,82994
36.83880,87514
36.84507,86117
36.85132,83639
36.85757,85678
36.86383,86678
36.87008,89058
36.87633,89150
36.88260,89201
36.88885,88923
36.89510,86298
36.90137,86820
36.90762,88970
36.91387,86299
36.92013,85977
36.92638,85503
36.93263,86057
36.93890,86307
36.94515,84984
36.95140,84902
36.95767,84131
36.96392,87109
36.97017,86648
36.97643,87143
36.98268,85778
36.98893,87694
36.99520,84219
37.00145,85371
37.00770,87250
37.01397,86906
37.02022,88728
37.02647,85756
37.03273,87243
37.03898,86528
37.04523,84673
37.05148,89671
37.05775,83621
37.06400,85408
37.07025,83958
37.07652,87476
37.08277,83453
37.08902,86588
37.09528,87184
37.10153,86137
37.10778,83593
37.11405,88025
37.12030,88781
37.12655,87669
37.13282,87304
37.13907,86546
37.14532,85323
37.15158,86539
37.15783,84169
37.16408,87598
37.17035,85491
37.17660,86599
37.18285,88724
37.18912,84844
37.19537,85966
37.20162,84825
37.20788,85135
37.21413,83641
37.22038,84930
37.22665,86613
37.23290,85568
37.23915,84633
37.24542,82969
37.25167,86075
37.25792,84253
37.26418,88434
37.27043,87712
37.27668,86450
37.28293,88135
37.28920,85281
37.29545,87013
37.30170,86572
37.30797,84967
37.31422,83104
37.32047,84363
37.32673,84131
37.33298,85204
37.33923,85465
37.34550,88290
37.35175,86056
37.35800,87898
37.36427,85013
37.37052,86232
37.37677,86937
37.38303,88276
37.38928,87374
37.39553,86245
37.40180,86266
37.40805,85670
37.41430,84822
37.42057,86042
37.42682,87707
37.43307,83546
37.43933,86325
37.44558,85441
37.45183,83540
37.45810,83908
37.46435,86116
37.47060,86728
37.47687,85818
37.48312,84343
37.48937,85127
