D:\MassHunter\GCMS\1\data\metastasis_lineages_3replicates_3runs_10302020\B_plate2_run1_10302020.D Fri Oct 30 18:35:50 2020
Start of data points
5.99362,189649
5.99987,195922
6.00612,206927
6.01238,204154
6.01863,189710
6.02488,184364
6.03115,186345
6.03740,196091
6.04365,193633
6.04992,185055
6.05617,195980
6.06242,200345
6.06868,193641
6.07493,179958
6.08118,170559
6.08745,188979
6.09370,322274
6.09995,652549
6.10622,978572
6.11247,895954
6.11872,547058
6.12497,298419
6.13123,211246
6.13748,204366
6.14373,251478
6.15000,330519
6.15625,503608
6.16250,756376
6.16877,930226
6.17502,791192
6.18127,486543
6.18753,289802
6.19378,212821
6.20003,190584
6.20630,181011
6.21255,171905
6.21880,148472
6.22507,144858
6.23132,141992
6.23757,147508
6.24383,138017
6.25008,132749
6.25633,136667
6.26260,130354
6.26885,144824
6.27510,145295
6.28137,146490
6.28762,146002
6.29387,172782
6.30013,250158
6.30638,456638
6.31263,1062752
6.31890,2893832
6.32515,6713221
6.33140,1.06629E+07
6.33765,1.093818E+07
6.34392,6043783
6.35017,1662142
6.35642,377962
6.36268,190031
6.36893,180988
6.37518,173148
6.38145,171576
6.38770,180145
6.39395,231882
6.40022,353865
6.40647,476144
6.41272,464398
6.41898,431310
6.42523,538388
6.43148,724676
6.43775,741612
6.44400,649744
6.45025,965309
6.45652,2459935
6.46277,5656291
6.46902,1.114626E+07
6.47528,1.818085E+07
6.48153,2.658415E+07
6.48778,3.384909E+07
6.49405,3.943882E+07
6.50030,4.302291E+07
6.50655,4.41386E+07
6.51282,4.406434E+07
6.51907,3.752375E+07
6.52532,6846219
6.53158,766949
6.53783,551842
6.54408,571237
6.55033,703551
6.55660,1021386
6.56285,1524418
6.56910,1914801
6.57537,1670498
6.58162,927696
6.58787,427677
6.59413,277263
6.60038,237508
6.60663,228227
6.61290,209378
6.61915,206017
6.62540,206856
6.63167,219291
6.63792,225854
6.64417,227696
6.65043,221927
6.65668,250021
6.66293,307424
6.66920,348501
6.67545,307651
6.68170,255075
6.68797,219249
6.69422,207905
6.70047,212475
6.70673,217142
6.71298,226372
6.71923,241466
6.72550,253781
6.73175,264398
6.73800,263238
6.74427,265215
6.75052,269081
6.75677,270427
6.76303,274454
6.76928,275923
6.77553,285711
6.78178,281589
6.78805,305546
6.79430,338580
6.80055,388694
6.80682,411611
6.81307,385282
6.81932,369153
6.82558,354664
6.83183,360921
6.83808,391383
6.84435,405693
6.85060,399319
6.85685,381222
6.86312,400256
6.86937,497447
6.87562,677050
6.88188,798909
6.88813,718067
6.89438,546679
6.90065,431464
6.90690,379774
6.91315,352164
6.91942,334738
6.92567,321333
6.93192,320637
6.93818,319159
6.94443,312994
6.95068,300711
6.95695,291308
6.96320,280893
6.96945,275174
6.97572,271605
6.98197,271552
6.98822,267546
6.99447,245760
7.00073,234800
7.00698,235060
7.01323,259588
7.01950,345613
7.02575,686803
7.03200,1780591
7.03827,3872405
7.04452,5852038
7.05077,5645979
7.05703,3330415
7.06328,1284931
7.06953,423641
7.07580,209750
7.08205,165717
7.08830,140208
7.09457,134184
7.10082,129334
7.10707,127092
7.11333,125948
7.11958,114705
7.12583,113501
7.13210,136081
7.13835,182104
7.14460,254015
7.15087,278290
7.15712,222923
7.16337,156134
7.16963,122706
7.17588,112616
7.18213,108160
7.18840,102547
7.19465,110331
7.20090,113597
7.20717,109696
7.21342,106820
7.21967,99780
7.22592,104085
7.23218,113605
7.23843,141560
7.24468,206065
7.25095,384721
7.25720,641032
7.26345,769835
7.26972,646470
7.27597,404911
7.28222,231346
7.28848,154942
7.29473,140984
7.30098,128300
7.30725,119901
7.31350,114120
7.31975,102268
7.32602,99061
7.33227,100554
7.33852,93118
7.34478,92454
7.35103,87536
7.35728,91105
7.36355,87136
7.36980,88189
7.37605,97757
7.38232,111186
7.38857,121716
7.39482,118572
7.40108,113631
7.40733,125962
7.41358,158651
7.41985,218722
7.42610,261503
7.43235,267572
7.43862,225214
7.44487,185126
7.45112,151849
7.45737,159923
7.46363,183464
7.46988,192471
7.47613,177448
7.48240,153842
7.48865,150174
7.49490,167385
7.50117,192686
7.50742,194490
7.51367,168390
7.51993,125289
7.52618,106438
7.53243,95843
7.53870,104215
7.54495,190150
7.55120,697002
7.55747,2625846
7.56372,7208529
7.56997,1.387857E+07
7.57623,2.035974E+07
7.58248,2.241016E+07
7.58873,1.685127E+07
7.59500,6954463
7.60125,1900696
7.60750,796734
7.61377,590760
7.62002,539291
7.62627,511760
7.63253,428297
7.63878,310418
7.64503,217867
7.65130,177184
7.65755,153014
7.66380,168334
7.67005,214415
7.67632,274752
7.68257,307469
7.68882,266065
7.69508,194797
7.70133,160365
7.70758,169949
7.71385,234162
7.72010,297706
7.72635,295109
7.73262,259666
7.73887,207714
7.74512,175860
7.75138,142162
7.75763,124477
7.76388,107782
7.77015,107298
7.77640,110888
7.78265,119143
7.78892,121101
7.79517,120989
7.80142,127021
7.80768,121169
7.81393,132009
7.82018,170820
7.82645,237751
7.83270,273985
7.83895,255537
7.84522,197713
7.85147,186987
7.85772,220853
7.86398,271334
7.87023,272894
7.87648,226841
7.88273,174710
7.88900,154418
7.89525,160035
7.90150,168869
7.90777,191153
7.91402,200651
7.92027,201478
7.92653,184180
7.93278,170223
7.93903,175918
7.94530,206563
7.95155,266392
7.95780,304845
7.96407,289696
7.97032,253447
7.97657,250273
7.98283,287923
7.98908,406586
7.99533,615277
8.00160,774581
8.00785,957423
8.01410,1345554
8.02037,1786725
8.02662,1845074
8.03287,1391249
8.03913,846625
8.04538,626875
8.05163,695907
8.05790,765525
8.06415,646877
8.07040,426967
8.07667,286176
8.08292,281704
8.08917,355500
8.09543,429386
8.10168,470108
8.10793,551826
8.11418,710364
8.12045,780133
8.12670,618476
8.13295,377011
8.13922,219636
8.14547,157582
8.15172,138932
8.15798,130308
8.16423,127706
8.17048,119659
8.17675,116394
8.18300,112261
8.18925,104807
8.19552,108004
8.20177,98819
8.20802,100047
8.21428,108675
8.22053,127662
8.22678,182801
8.23305,259633
8.23930,301412
8.24555,272030
8.25182,204564
8.25807,156301
8.26432,144512
8.27058,136840
8.27683,143487
8.28308,172641
8.28935,185295
8.29560,180697
8.30185,148222
8.30812,116592
8.31437,94075
8.32062,90535
8.32687,90598
8.33313,94943
8.33938,92995
8.34563,96822
8.35190,93793
8.35815,98624
8.36440,99157
8.37067,94270
8.37692,90943
8.38317,90360
8.38943,98336
8.39568,129048
8.40193,209061
8.40820,318113
8.41445,357775
8.42070,286193
8.42697,187799
8.43322,134763
8.43947,127410
8.44573,131802
8.45198,145402
8.45823,140175
8.46450,131844
8.47075,119404
8.47700,109856
8.48327,112795
8.48952,112321
8.49577,116886
8.50203,124231
8.50828,131450
8.51453,125323
8.52080,109845
8.52705,97972
8.53330,90334
8.53955,89400
8.54582,90543
8.55207,106781
8.55832,154276
8.56458,261883
8.57083,415073
8.57708,589706
8.58335,836851
8.58960,1197849
8.59585,1350807
8.60212,1254532
8.60837,1652567
8.61462,3837707
8.62088,8454649
8.62713,1.339117E+07
8.63338,1.480251E+07
8.63965,1.049749E+07
8.64590,4233864
8.65215,1084081
8.65842,307269
8.66467,200621
8.67092,190672
8.67718,181185
8.68343,173217
8.68968,176478
8.69595,184113
8.70220,183377
8.70845,191122
8.71472,194159
8.72097,186420
8.72722,168182
8.73348,148592
8.73973,151929
8.74598,156601
8.75225,161218
8.75850,140617
8.76475,113550
8.77100,99228
8.77727,100212
8.78352,98508
8.78977,99221
8.79603,90768
8.80228,85611
8.80853,83097
8.81480,84781
8.82105,93872
8.82730,142431
8.83357,340045
8.83982,1011717
8.84607,2719208
8.85233,5664689
8.85858,8639359
8.86483,9531269
8.87110,8003436
8.87735,5816348
8.88360,4859403
8.88987,4789994
8.89612,3573759
8.90237,1544698
8.90863,569801
8.91488,273046
8.92113,175940
8.92740,136859
8.93365,119961
8.93990,120557
8.94617,122155
8.95242,145211
8.95867,173008
8.96493,212154
8.97118,235484
8.97743,246055
8.98368,259044
8.98995,302198
8.99620,407389
9.00245,569085
9.00872,710317
9.01497,718906
9.02122,545011
9.02748,370084
9.03373,383768
9.03998,621024
9.04625,911940
9.05250,940113
9.05875,654022
9.06502,356697
9.07127,200453
9.07752,151987
9.08378,138773
9.09003,142369
9.09628,152076
9.10255,153000
9.10880,146097
9.11505,129838
9.12132,117292
9.12757,120166
9.13382,145614
9.14008,183141
9.14633,190936
9.15258,190728
9.15885,218826
9.16510,264774
9.17135,284518
9.17762,285791
9.18387,304714
9.19012,362551
9.19637,372320
9.20263,310539
9.20888,218042
9.21513,145261
9.22140,117515
9.22765,111462
9.23390,121374
9.24017,154489
9.24642,200958
9.25267,222633
9.25893,200297
9.26518,151455
9.27143,117121
9.27770,103016
9.28395,106233
9.29020,122626
9.29647,171344
9.30272,232693
9.30897,283398
9.31523,327613
9.32148,361396
9.32773,367118
9.33400,367770
9.34025,477679
9.34650,731352
9.35277,918443
9.35902,864108
9.36527,579950
9.37153,384916
9.37778,685321
9.38403,2379680
9.39030,6393545
9.39655,1.155315E+07
9.40280,1.471649E+07
9.40907,1.271978E+07
9.41532,6552643
9.42157,2033905
9.42782,752012
9.43408,1226333
9.44033,3838944
9.44658,9971313
9.45285,1.852542E+07
9.45910,2.42395E+07
9.46535,2.318428E+07
9.47162,1.444059E+07
9.47787,5366509
9.48412,1494143
9.49038,495828
9.49663,266061
9.50288,191348
9.50915,168742
9.51540,159241
9.52165,156185
9.52792,151408
9.53417,150931
9.54042,146669
9.54668,146945
9.55293,143128
9.55918,140324
9.56545,155356
9.57170,177932
9.57795,183506
9.58422,171133
9.59047,154784
9.59672,141495
9.60298,149430
9.60923,174349
9.61548,198446
9.62175,208911
9.62800,184218
9.63425,152106
9.64050,129741
9.64677,121064
9.65302,126477
9.65927,123040
9.66553,115829
9.67178,141046
9.67803,379792
9.68430,1466309
9.69055,4391710
9.69680,9103573
9.70307,1.327035E+07
9.70932,1.351241E+07
9.71557,8624386
9.72183,3438221
9.72808,1815458
9.73433,2377120
9.74060,3123927
9.74685,2852654
9.75310,1716443
9.75937,744202
9.76562,294451
9.77187,176570
9.77813,151903
9.78438,134993
9.79063,116558
9.79690,109441
9.80315,103391
9.80940,101214
9.81567,104732
9.82192,101899
9.82817,101186
9.83443,115566
9.84068,139088
9.84693,191239
9.85320,390637
9.85945,1209896
9.86570,3476501
9.87195,7447516
9.87822,1.118944E+07
9.88447,1.142866E+07
9.89072,7591659
9.89698,3098587
9.90323,1324241
9.90948,1306993
9.91575,1459475
9.92200,1132934
9.92825,619556
9.93452,287445
9.94077,175149
9.94702,147710
9.95328,168161
9.95953,235916
9.96578,418086
9.97205,648438
9.97830,824034
9.98455,852659
9.99082,714978
9.99707,516299
10.00332,369962
10.00958,272423
10.01583,215070
10.02208,191005
10.02835,169818
10.03460,146767
10.04085,133281
10.04712,134048
10.05337,125650
10.05962,118471
10.06588,114073
10.07213,104125
10.07838,106390
10.08463,116625
10.09090,130958
10.09715,144594
10.10340,155100
10.10967,156233
10.11592,152040
10.12217,148933
10.12843,131911
10.13468,117798
10.14093,106590
10.14720,104590
10.15345,103565
10.15970,103386
10.16597,105200
10.17222,108467
10.17847,115754
10.18473,121257
10.19098,135761
10.19723,130539
10.20350,114005
10.20975,110082
10.21600,130281
10.22227,208092
10.22852,342014
10.23477,485279
10.24103,520431
10.24728,450917
10.25353,338696
10.25980,256061
10.26605,213694
10.27230,194802
10.27857,165523
10.28482,162786
10.29107,203157
10.29733,262774
10.30358,258995
10.30983,218451
10.31608,163259
10.32235,144065
10.32860,158955
10.33485,221757
10.34112,285639
10.34737,290851
10.35362,226838
10.35988,168528
10.36613,141294
10.37238,133327
10.37865,123568
10.38490,113927
10.39115,102009
10.39742,100428
10.40367,88165
10.40992,86501
10.41618,89467
10.42243,99237
10.42868,110625
10.43495,115989
10.44120,116003
10.44745,115089
10.45372,122104
10.45997,126401
10.46622,126610
10.47248,130427
10.47873,151416
10.48498,213627
10.49125,274218
10.49750,287152
10.50375,224416
10.51002,168580
10.51627,129187
10.52252,110892
10.52877,120538
10.53503,153958
10.54128,195909
10.54753,224625
10.55380,203466
10.56005,165066
10.56630,153514
10.57257,158373
10.57882,176879
10.58507,192090
10.59133,197933
10.59758,204825
10.60383,355384
10.61010,1103735
10.61635,3194701
10.62260,6850550
10.62887,1.06012E+07
10.63512,1.140286E+07
10.64137,8256550
10.64763,3494634
10.65388,1027579
10.66013,311126
10.66640,169087
10.67265,158551
10.67890,164695
10.68517,173619
10.69142,160760
10.69767,135889
10.70393,116357
10.71018,108440
10.71643,105919
10.72270,116943
10.72895,127216
10.73520,133447
10.74147,140215
10.74772,143097
10.75397,135193
10.76022,133815
10.76648,131484
10.77273,141733
10.77898,150396
10.78525,155978
10.79150,153757
10.79775,150505
10.80402,150400
10.81027,186430
10.81652,278015
10.82278,388489
10.82903,393561
10.83528,296152
10.84155,194383
10.84780,143507
10.85405,130638
10.86032,142145
10.86657,150886
10.87282,148546
10.87908,148832
10.88533,144598
10.89158,145174
10.89785,150196
10.90410,171212
10.91035,184822
10.91662,180936
10.92287,163986
10.92912,155243
10.93538,151785
10.94163,140430
10.94788,123880
10.95415,116994
10.96040,150428
10.96665,340712
10.97290,1088275
10.97917,3261016
10.98542,7472754
10.99167,1.375917E+07
10.99793,1.841204E+07
11.00418,1.816864E+07
11.01043,1.135193E+07
11.01670,4152136
11.02295,999242
11.02920,292000
11.03547,203359
11.04172,217669
11.04797,227321
11.05423,235055
11.06048,272926
11.06673,285196
11.07300,251254
11.07925,196844
11.08550,145653
11.09177,130676
11.09802,132145
11.10427,146937
11.11053,148528
11.11678,148814
11.12303,147688
11.12930,158770
11.13555,169120
11.14180,168674
11.14807,173741
11.15432,203853
11.16057,285875
11.16683,409292
11.17308,502545
11.17933,476775
11.18558,343260
11.19185,221355
11.19810,153604
11.20435,139330
11.21062,152884
11.21687,171630
11.22312,189864
11.22938,192965
11.23563,179928
11.24188,170013
11.24815,173077
11.25440,194273
11.26065,220018
11.26692,210838
11.27317,202885
11.27942,214218
11.28568,238302
11.29193,234600
11.29818,208685
11.30445,165418
11.31070,149217
11.31695,162400
11.32322,237105
11.32947,370111
11.33572,472618
11.34198,444801
11.34823,314432
11.35448,188884
11.36075,130976
11.36700,115115
11.37325,116748
11.37952,115016
11.38577,112426
11.39202,108878
11.39828,118136
11.40453,122644
11.41078,131034
11.41703,132724
11.42330,134156
11.42955,135758
11.43580,152069
11.44207,226713
11.44832,371641
11.45457,513379
11.46083,546222
11.46708,418134
11.47333,270310
11.47960,183196
11.48585,154204
11.49210,154794
11.49837,145642
11.50462,134355
11.51087,127893
11.51713,122805
11.52338,119553
11.52963,112142
11.53590,117575
11.54215,120028
11.54840,117984
11.55467,118597
11.56092,113010
11.56717,105560
11.57343,101439
11.57968,103167
11.58593,106810
11.59220,115191
11.59845,122855
11.60470,127159
11.61097,124099
11.61722,119034
11.62347,118402
11.62972,117757
11.63598,116186
11.64223,120505
11.64848,131425
11.65475,146988
11.66100,161145
11.66725,159036
11.67352,153006
11.67977,134568
11.68602,124077
11.69228,125255
11.69853,135532
11.70478,154919
11.71105,196187
11.71730,253864
11.72355,286923
11.72982,281850
11.73607,237914
11.74232,203103
11.74858,170377
11.75483,146945
11.76108,135229
11.76735,139640
11.77360,155295
11.77985,174679
11.78612,176868
11.79237,172786
11.79862,173163
11.80488,173406
11.81113,176687
11.81738,166253
11.82365,168923
11.82990,212407
11.83615,328679
11.84240,522814
11.84867,628489
11.85492,566633
11.86117,390206
11.86743,253994
11.87368,184082
11.87993,173655
11.88620,210322
11.89245,288080
11.89870,372470
11.90497,390867
11.91122,343154
11.91747,270260
11.92373,209980
11.92998,182839
11.93623,191659
11.94250,284988
11.94875,595746
11.95500,1316620
11.96127,2610038
11.96752,4266050
11.97377,5176466
11.98003,4515258
11.98628,2414693
11.99253,900862
11.99880,367589
12.00505,271882
12.01130,271473
12.01757,264482
12.02382,257830
12.03007,259191
12.03633,285393
12.04258,359401
12.04883,491896
12.05510,659720
12.06135,781320
12.06760,762018
12.07385,600255
12.08012,449831
12.08637,356510
12.09262,340811
12.09888,349433
12.10513,339556
12.11138,306503
12.11765,254251
12.12390,205132
12.13015,184212
12.13642,178459
12.14267,168281
12.14892,160647
12.15518,155976
12.16143,149817
12.16768,152709
12.17395,150539
12.18020,155695
12.18645,163879
12.19272,181001
12.19897,225804
12.20522,282162
12.21148,351291
12.21773,408677
12.22398,401027
12.23025,354442
12.23650,314886
12.24275,310535
12.24902,386151
12.25527,570461
12.26152,885792
12.26778,1297394
12.27403,1665275
12.28028,1748165
12.28653,1497771
12.29280,962521
12.29905,515440
12.30530,264887
12.31157,176114
12.31782,146958
12.32407,130417
12.33033,132606
12.33658,139097
12.34283,160883
12.34910,186800
12.35535,216692
12.36160,229899
12.36787,229306
12.37412,212945
12.38037,212523
12.38663,250588
12.39288,304390
12.39913,333422
12.40540,289756
12.41165,232640
12.41790,189944
12.42417,180395
12.43042,193581
12.43667,234873
12.44293,250909
12.44918,246128
12.45543,209532
12.46170,183168
12.46795,185483
12.47420,259147
12.48047,449973
12.48672,871757
12.49297,1464744
12.49923,2092894
12.50548,2209925
12.51173,1731809
12.51798,950926
12.52425,402244
12.53050,219748
12.53675,189349
12.54302,213625
12.54927,249969
12.55552,249630
12.56178,224439
12.56803,225936
12.57428,299473
12.58055,526919
12.58680,999359
12.59305,1622456
12.59932,1993052
12.60557,1847466
12.61182,1584791
12.61808,1781160
12.62433,2532213
12.63058,3509331
12.63685,4624691
12.64310,6137203
12.64935,8349522
12.65562,1.194253E+07
12.66187,1.65373E+07
12.66812,2.143319E+07
12.67438,2.562939E+07
12.68063,2.667442E+07
12.68688,2.382912E+07
12.69315,1.431803E+07
12.69940,4413914
12.70565,1014659
12.71192,479293
12.71817,541626
12.72442,661556
12.73067,717209
12.73693,718229
12.74318,755083
12.74943,769341
12.75570,688660
12.76195,547242
12.76820,437610
12.77447,365150
12.78072,320984
12.78697,298902
12.79323,298805
12.79948,291698
12.80573,272699
12.81200,244653
12.81825,226562
12.82450,225954
12.83077,222083
12.83702,223015
12.84327,216468
12.84953,214055
12.85578,207678
12.86203,208738
12.86830,210440
12.87455,209722
12.88080,219972
12.88707,279455
12.89332,406088
12.89957,578148
12.90583,670819
12.91208,612108
12.91833,472261
12.92460,362160
12.93085,274905
12.93710,226850
12.94337,189125
12.94962,176594
12.95587,164399
12.96212,164197
12.96838,153736
12.97463,151278
12.98088,152460
12.98715,158414
12.99340,168103
12.99965,184208
13.00592,199770
13.01217,212438
13.01842,241954
13.02468,293832
13.03093,397145
13.03718,549602
13.04345,666642
13.04970,610351
13.05595,458667
13.06222,333394
13.06847,368791
13.07472,681488
13.08098,1417815
13.08723,2474650
13.09348,3359159
13.09975,3112933
13.10600,2043323
13.11225,1055475
13.11852,536098
13.12477,353490
13.13102,284297
13.13728,260911
13.14353,257205
13.14978,252920
13.15605,238664
13.16230,214751
13.16855,200221
13.17480,187758
13.18107,176633
13.18732,163924
13.19357,157493
13.19983,151853
13.20608,152587
13.21233,156885
13.21860,160420
13.22485,172287
13.23110,182067
13.23737,206955
13.24362,224867
13.24987,228273
13.25613,229933
13.26238,240925
13.26863,259063
13.27490,259150
13.28115,243381
13.28740,228372
13.29367,247964
13.29992,312193
13.30617,456584
13.31243,637423
13.31868,723162
13.32493,625927
13.33120,425597
13.33745,270387
13.34370,218239
13.34997,222062
13.35622,243710
13.36247,244926
13.36873,224354
13.37498,199799
13.38123,181812
13.38750,163513
13.39375,157086
13.40000,155717
13.40625,152056
13.41252,160442
13.41877,168469
13.42502,186900
13.43128,212074
13.43753,240908
13.44378,265235
13.45005,280539
13.45630,266811
13.46255,223625
13.46882,200389
13.47507,180788
13.48132,182669
13.48758,183741
13.49383,193338
13.50008,191914
13.50635,187521
13.51260,189501
13.51885,191697
13.52512,202684
13.53137,209064
13.53762,224512
13.54388,257684
13.55013,343270
13.55638,478657
13.56265,612045
13.56890,631306
13.57515,531102
13.58142,417179
13.58767,375556
13.59392,443172
13.60018,618016
13.60643,853289
13.61268,952159
13.61893,916089
13.62520,740723
13.63145,556061
13.63770,415486
13.64397,331638
13.65022,283046
13.65647,269230
13.66273,262180
13.66898,255023
13.67523,247129
13.68150,251089
13.68775,266074
13.69400,290408
13.70027,302936
13.70652,299971
13.71277,269285
13.71903,240114
13.72528,226066
13.73153,222878
13.73780,229680
13.74405,233455
13.75030,267625
13.75657,390688
13.76282,683931
13.76907,1098383
13.77533,1308332
13.78158,1166608
13.78783,769355
13.79410,483625
13.80035,432950
13.80660,733784
13.81287,1539833
13.81912,2983531
13.82537,5497308
13.83162,9377607
13.83788,1.447898E+07
13.84413,1.819213E+07
13.85038,1.7263E+07
13.85665,1.030742E+07
13.86290,3414068
13.86915,786798
13.87542,301728
13.88167,259182
13.88792,382468
13.89418,724000
13.90043,1544521
13.90668,3238167
13.91295,5572157
13.91920,8266040
13.92545,8991200
13.93172,6792373
13.93797,3381299
13.94422,1105158
13.95048,350778
13.95673,191084
13.96298,167960
13.96925,163840
13.97550,164626
13.98175,162732
13.98802,158309
13.99427,156941
14.00052,165684
14.00678,185127
14.01303,215251
14.01928,239310
14.02555,238635
14.03180,202695
14.03805,159625
14.04432,138484
14.05057,131257
14.05682,133972
14.06307,145909
14.06933,171438
14.07558,189174
14.08183,201250
14.08810,186819
14.09435,151928
14.10060,132274
14.10687,122052
14.11312,116078
14.11937,118412
14.12563,129797
14.13188,135378
14.13813,142634
14.14440,132526
14.15065,123200
14.15690,126681
14.16317,127667
14.16942,134937
14.17567,121959
14.18193,113630
14.18818,110989
14.19443,108303
14.20070,107403
14.20695,115939
14.21320,124014
14.21947,134203
14.22572,152342
14.23197,181942
14.23823,199592
14.24448,211215
14.25073,182305
14.25700,161665
14.26325,175609
14.26950,234408
14.27575,370661
14.28202,514766
14.28827,527018
14.29452,416631
14.30078,292652
14.30703,218290
14.31328,186311
14.31955,181232
14.32580,197016
14.33205,233453
14.33832,249923
14.34457,234746
14.35082,197775
14.35708,167468
14.36333,148912
14.36958,145060
14.37585,151603
14.38210,158870
14.38835,166302
14.39462,189312
14.40087,254655
14.40712,441293
14.41338,968141
14.41963,2044818
14.42588,3518202
14.43215,4315762
14.43840,3697265
14.44465,2469867
14.45092,1468917
14.45717,1050867
14.46342,954283
14.46968,968603
14.47593,950501
14.48218,914188
14.48843,856727
14.49470,704855
14.50095,511689
14.50720,350913
14.51347,237511
14.51972,198382
14.52597,185890
14.53223,190239
14.53848,193866
14.54473,189889
14.55100,187174
14.55725,193350
14.56350,191547
14.56977,201180
14.57602,201536
14.58227,208993
14.58853,198260
14.59478,178971
14.60103,163012
14.60730,166298
14.61355,175667
14.61980,176099
14.62607,174761
14.63232,175796
14.63857,198400
14.64483,269023
14.65108,360104
14.65733,421563
14.66360,412454
14.66985,343022
14.67610,276709
14.68237,237876
14.68862,231968
14.69487,251624
14.70113,293201
14.70738,361239
14.71363,382712
14.71988,411112
14.72615,518678
14.73240,800231
14.73865,1266507
14.74492,1705251
14.75117,1925694
14.75742,1987139
14.76368,2059436
14.76993,2075661
14.77618,1645119
14.78245,987889
14.78870,505974
14.79495,395972
14.80122,711677
14.80747,1671527
14.81372,3108442
14.81998,4209348
14.82623,3732458
14.83248,2199704
14.83875,902846
14.84500,335502
14.85125,197078
14.85752,185719
14.86377,215467
14.87002,262180
14.87628,287953
14.88253,277179
14.88878,246145
14.89505,211695
14.90130,194233
14.90755,198270
14.91382,258060
14.92007,363953
14.92632,475916
14.93257,547761
14.93883,531534
14.94508,449156
14.95133,358178
14.95760,314688
14.96385,339189
14.97010,538552
14.97637,961582
14.98262,1556599
14.98887,1899132
14.99513,1623209
15.00138,1013759
15.00763,528311
15.01390,315619
15.02015,240674
15.02640,211563
15.03267,199768
15.03892,203751
15.04517,221925
15.05143,237579
15.05768,259174
15.06393,270902
15.07020,269069
15.07645,256394
15.08270,253389
15.08897,244473
15.09522,267026
15.10147,304041
15.10773,335336
15.11398,365476
15.12023,408615
15.12650,494919
15.13275,625002
15.13900,748613
15.14527,861046
15.15152,960613
15.15777,1056817
15.16402,1422261
15.17028,2528555
15.17653,4326464
15.18278,5525642
15.18905,4989511
15.19530,3033593
15.20155,1327514
15.20782,565089
15.21407,327486
15.22032,235649
15.22658,190431
15.23283,160107
15.23908,152951
15.24535,160575
15.25160,171822
15.25785,192769
15.26412,203499
15.27037,198615
15.27662,182046
15.28288,167699
15.28913,157413
15.29538,155608
15.30165,163045
15.30790,170201
15.31415,181709
15.32042,207863
15.32667,256659
15.33292,290745
15.33918,290431
15.34543,238282
15.35168,200696
15.35795,205967
15.36420,243634
15.37045,291293
15.37670,297497
15.38297,250367
15.38922,199726
15.39547,170915
15.40173,155483
15.40798,145694
15.41423,140987
15.42050,152892
15.42675,182005
15.43300,236320
15.43927,308182
15.44552,370438
15.45177,440116
15.45803,514930
15.46428,553302
15.47053,528959
15.47680,436882
15.48305,338581
15.48930,243209
15.49557,193737
15.50182,184246
15.50807,214939
15.51433,290020
15.52058,552458
15.52683,1286925
15.53310,2788095
15.53935,4812112
15.54560,6707418
15.55187,8744864
15.55812,1.187579E+07
15.56437,1.488673E+07
15.57063,1.549401E+07
15.57688,1.114386E+07
15.58313,4244530
15.58940,1145847
15.59565,474718
15.60190,345504
15.60815,317791
15.61442,311286
15.62067,325971
15.62692,317291
15.63318,294905
15.63943,275265
15.64568,261235
15.65195,244086
15.65820,221657
15.66445,205496
15.67072,209267
15.67697,215309
15.68322,229556
15.68948,237747
15.69573,234283
15.70198,216597
15.70825,208692
15.71450,198098
15.72075,181672
15.72702,169676
15.73327,165170
15.73952,166185
15.74578,179293
15.75203,187736
15.75828,192475
15.76455,180173
15.77080,160554
15.77705,140719
15.78332,127852
15.78957,127561
15.79582,126491
15.80208,129925
15.80833,138319
15.81458,138568
15.82083,142626
15.82710,147240
15.83335,166317
15.83960,213748
15.84587,299847
15.85212,386377
15.85837,417364
15.86463,344073
15.87088,248687
15.87713,189870
15.88340,177726
15.88965,177907
15.89590,174573
15.90217,170126
15.90842,156400
15.91467,143196
15.92093,134447
15.92718,136580
15.93343,135984
15.93970,134040
15.94595,136807
15.95220,130609
15.95847,128669
15.96472,136547
15.97097,141036
15.97723,148349
15.98348,140845
15.98973,132236
15.99600,118175
16.00225,116470
16.00850,139517
16.01477,181540
16.02102,266100
16.02727,374865
16.03353,475589
16.03978,548385
16.04603,623454
16.05228,741559
16.05855,898155
16.06480,861008
16.07105,691132
16.07732,530114
16.08357,581604
16.08982,751119
16.09608,899152
16.10233,929223
16.10858,883041
16.11485,993350
16.12110,1458007
16.12735,2108498
16.13362,2747738
16.13987,2565057
16.14612,1718543
16.15238,879871
16.15863,423190
16.16488,278401
16.17115,252565
16.17740,250818
16.18365,239464
16.18992,240295
16.19617,274397
16.20242,327075
16.20868,337737
16.21493,307657
16.22118,293567
16.22745,456063
16.23370,971759
16.23995,1822333
16.24622,2487684
16.25247,2265724
16.25872,1491999
16.26497,732994
16.27123,349609
16.27748,223495
16.28373,187437
16.29000,189961
16.29625,259794
16.30250,436798
16.30877,795677
16.31502,1164037
16.32127,1188554
16.32753,922416
16.33378,505619
16.34003,284597
16.34630,195925
16.35255,179942
16.35880,178830
16.36507,176179
16.37132,173963
16.37757,165713
16.38383,163209
16.39008,152963
16.39633,153555
16.40260,157549
16.40885,158085
16.41510,154067
16.42137,156231
16.42762,164064
16.43387,209136
16.44013,354167
16.44638,669378
16.45263,1049243
16.45890,1176750
16.46515,1031786
16.47140,756534
16.47765,543428
16.48392,417318
16.49017,346721
16.49642,285215
16.50268,258461
16.50893,273172
16.51518,320245
16.52145,436839
16.52770,617254
16.53395,723468
16.54022,702905
16.54647,597238
16.55272,472715
16.55898,410462
16.56523,362829
16.57148,327659
16.57775,298342
16.58400,295662
16.59025,295775
16.59652,295531
16.60277,293146
16.60902,290164
16.61528,284173
16.62153,292356
16.62778,297503
16.63405,313118
16.64030,331512
16.64655,356753
16.65282,394844
16.65907,425211
16.66532,401989
16.67158,359351
16.67783,341192
16.68408,348817
16.69035,356654
16.69660,355423
16.70285,333178
16.70910,291353
16.71537,255666
16.72162,239973
16.72787,236304
16.73413,242785
16.74038,244697
16.74663,253402
16.75290,261493
16.75915,268841
16.76540,296759
16.77167,368477
16.77792,506271
16.78417,721848
16.79043,981347
16.79668,1492307
16.80293,2770251
16.80920,4645303
16.81545,6647046
16.82170,7887777
16.82797,8323058
16.83422,8706712
16.84047,9632126
16.84673,1.105291E+07
16.85298,1.201512E+07
16.85923,1.06201E+07
16.86550,8263306
16.87175,5977190
16.87800,4717277
16.88427,3993718
16.89052,3600033
16.89677,3188129
16.90303,2921356
16.90928,2834408
16.91553,2724169
16.92178,2549780
16.92805,2726345
16.93430,3013375
16.94055,3363637
16.94682,3438672
16.95307,3374709
16.95932,3185706
16.96558,3011073
16.97183,2670206
16.97808,2302049
16.98435,1860374
16.99060,1565563
16.99685,1378849
17.00312,1361512
17.00937,1683904
17.01562,2768712
17.02188,5245600
17.02813,9214269
17.03438,1.451457E+07
17.04065,2.012895E+07
17.04690,2.605622E+07
17.05315,3.230756E+07
17.05942,3.892318E+07
17.06567,4.478378E+07
17.07192,4.790298E+07
17.07818,4.779455E+07
17.08443,4.579927E+07
17.09068,4.356098E+07
17.09695,4.079177E+07
17.10320,3.889519E+07
17.10945,3.755956E+07
17.11572,3.621699E+07
17.12197,3.952108E+07
17.12822,3.259339E+07
17.13447,8234970
17.14073,6816221
17.14698,6368552
17.15323,5990184
17.15950,7539941
17.16575,1.330675E+07
17.17200,2.251013E+07
17.17827,3.169258E+07
17.18452,3.577639E+07
17.19077,3.073428E+07
17.19703,1.571029E+07
17.20328,5189326
17.20953,2675552
17.21580,2603770
17.22205,3107024
17.22830,3995922
17.23457,5447938
17.24082,8261186
17.24707,1.416103E+07
17.25333,2.357402E+07
17.25958,3.541045E+07
17.26583,4.373431E+07
17.27210,4.765198E+07
17.27835,4.595065E+07
17.28460,3.303363E+07
17.29087,1.298769E+07
17.29712,7641112
17.30337,1.017376E+07
17.30963,1.334717E+07
17.31588,1.364507E+07
17.32213,9428420
17.32840,4553205
17.33465,1967753
17.34090,1201384
17.34717,1018088
17.35342,953422
17.35967,920467
17.36592,877740
17.37218,834818
17.37843,802261
17.38468,795448
17.39095,799554
17.39720,816227
17.40345,870154
17.40972,947165
17.41597,1051437
17.42222,1061634
17.42848,978753
17.43473,899430
17.44098,960894
17.44725,1272491
17.45350,1983475
17.45975,2900031
17.46602,3598004
17.47227,3252833
17.47852,2254711
17.48478,1316802
17.49103,808238
17.49728,635739
17.50355,625044
17.50980,682237
17.51605,780091
17.52232,886619
17.52857,925965
17.53482,845149
17.54108,710073
17.54733,598660
17.55358,585179
17.55985,704989
17.56610,1050530
17.57235,2031259
17.57860,4404464
17.58487,7449840
17.59112,9292819
17.59737,8327389
17.60363,5188862
17.60988,2297989
17.61613,1073494
17.62240,783587
17.62865,788337
17.63490,778349
17.64117,705523
17.64742,604196
17.65367,529218
17.65993,482383
17.66618,470947
17.67243,444747
17.67870,439213
17.68495,445542
17.69120,468304
17.69747,487401
17.70372,544535
17.70997,615657
17.71623,672117
17.72248,633373
17.72873,537989
17.73500,447415
17.74125,414184
17.74750,422237
17.75377,442233
17.76002,459048
17.76627,501354
17.77253,553645
17.77878,685447
17.78503,941101
17.79128,1461302
17.79755,2477198
17.80380,4163303
17.81005,6128198
17.81632,7220183
17.82257,6666516
17.82882,4434885
17.83508,2660229
17.84133,1683598
17.84758,1252863
17.85385,992607
17.86010,875477
17.86635,1232310
17.87262,2517977
17.87887,4759510
17.88512,7200121
17.89138,7340990
17.89763,5066205
17.90388,2510194
17.91015,1143032
17.91640,674564
17.92265,537391
17.92892,485290
17.93517,454391
17.94142,435087
17.94768,406465
17.95393,393310
17.96018,392636
17.96645,393484
17.97270,400462
17.97895,408143
17.98522,426167
17.99147,457063
17.99772,507739
18.00398,585016
18.01023,676734
18.01648,726032
18.02273,707761
18.02900,619597
18.03525,508389
18.04150,430230
18.04777,397393
18.05402,388102
18.06027,363140
18.06653,336008
18.07278,309195
18.07903,305867
18.08530,318941
18.09155,341284
18.09780,415070
18.10407,518085
18.11032,633143
18.11657,702818
18.12283,693477
18.12908,713805
18.13533,1041923
18.14160,1907129
18.14785,3112143
18.15410,3747446
18.16037,3075298
18.16662,1846462
18.17287,876379
18.17913,472411
18.18538,347383
18.19163,304202
18.19790,277141
18.20415,275233
18.21040,277239
18.21667,297727
18.22292,313683
18.22917,329245
18.23542,322407
18.24168,302260
18.24793,290024
18.25418,288267
18.26045,296948
18.26670,315143
18.27295,332997
18.27922,366134
18.28547,418460
18.29172,535650
18.29798,805609
18.30423,1185015
18.31048,1449505
18.31675,1373201
18.32300,1080595
18.32925,730460
18.33552,516312
18.34177,350884
18.34802,276769
18.35428,255680
18.36053,263806
18.36678,271420
18.37305,272310
18.37930,280160
18.38555,301889
18.39182,349555
18.39807,392075
18.40432,396479
18.41058,374122
18.41683,353149
18.42308,337433
18.42935,315225
18.43560,292513
18.44185,276966
18.44812,268714
18.45437,256986
18.46062,244048
18.46687,229363
18.47313,226222
18.47938,225815
18.48563,224529
18.49190,214947
18.49815,211668
18.50440,208976
18.51067,208436
18.51692,216089
18.52317,222096
18.52943,218703
18.53568,217075
18.54193,221561
18.54820,228104
18.55445,243303
18.56070,251460
18.56697,253400
18.57322,250565
18.57947,242444
18.58573,223501
18.59198,219565
18.59823,216353
18.60450,236895
18.61075,260953
18.61700,301641
18.62327,321352
18.62952,318689
18.63577,281923
18.64203,261805
18.64828,265628
18.65453,272006
18.66080,264823
18.66705,261215
18.67330,264880
18.67955,271263
18.68582,260275
18.69207,231521
18.69832,226069
18.70458,230221
18.71083,260022
18.71708,297866
18.72335,318500
18.72960,312781
18.73585,279877
18.74212,239848
18.74837,220244
18.75462,214478
18.76088,210099
18.76713,202434
18.77338,196357
18.77965,195075
18.78590,196452
18.79215,197052
18.79842,188323
18.80467,190957
18.81092,195370
18.81718,207658
18.82343,206293
18.82968,204077
18.83595,200230
18.84220,194367
18.84845,187056
18.85472,187849
18.86097,198062
18.86722,246070
18.87348,384405
18.87973,867438
18.88598,2289664
18.89225,5523048
18.89850,1.056434E+07
18.90475,1.58498E+07
18.91100,1.78852E+07
18.91727,1.407045E+07
18.92352,7623802
18.92977,2727434
18.93603,816216
18.94228,359186
18.94853,275134
18.95480,251699
18.96105,231967
18.96730,207937
18.97357,200156
18.97982,189429
18.98607,184804
18.99233,187373
18.99858,194426
19.00483,198583
19.01110,219077
19.01735,216838
19.02360,213349
19.02987,208485
19.03612,200871
19.04237,205888
19.04863,219067
19.05488,232949
19.06113,239086
19.06740,224501
19.07365,203564
19.07990,202822
19.08617,205441
19.09242,221136
19.09867,230892
19.10493,249612
19.11118,247908
19.11743,249686
19.12368,247525
19.12995,261185
19.13620,265771
19.14245,271779
19.14872,259317
19.15497,246988
19.16122,230595
19.16748,210073
19.17373,193010
19.17998,182513
19.18625,184621
19.19250,183995
19.19875,190817
19.20502,196275
19.21127,193431
19.21752,189671
19.22378,183840
19.23003,178277
19.23628,172379
19.24255,162433
19.24880,161822
19.25505,160267
19.26132,161123
19.26757,159348
19.27382,153038
19.28008,159708
19.28633,160256
19.29258,167806
19.29885,169802
19.30510,171848
19.31135,163890
19.31762,159476
19.32387,149797
19.33012,148056
19.33637,149853
19.34263,157971
19.34888,174057
19.35513,198005
19.36140,218962
19.36765,219938
19.37390,206994
19.38017,194676
19.38642,185219
19.39267,187465
19.39893,201467
19.40518,219595
19.41143,235021
19.41770,230298
19.42395,212946
19.43020,197829
19.43647,190756
19.44272,186126
19.44897,182860
19.45523,187885
19.46148,182430
19.46773,182792
19.47400,167657
19.48025,164724
19.48650,167178
19.49277,175259
19.49902,181197
19.50527,194601
19.51153,199038
19.51778,209068
19.52403,216546
19.53030,220423
19.53655,213805
19.54280,206398
19.54907,220276
19.55532,243591
19.56157,268756
19.56782,266040
19.57408,248456
19.58033,218209
19.58658,187731
19.59285,174609
19.59910,171076
19.60535,171431
19.61162,167190
19.61787,157877
19.62412,158188
19.63038,162847
19.63663,177733
19.64288,193918
19.64915,204492
19.65540,203421
19.66165,196098
19.66792,200543
19.67417,218045
19.68042,265899
19.68668,298058
19.69293,304532
19.69918,265797
19.70545,236283
19.71170,235715
19.71795,241438
19.72422,243548
19.73047,234907
19.73672,222449
19.74298,211231
19.74923,211875
19.75548,211184
19.76175,205958
19.76800,210466
19.77425,219527
19.78050,233253
19.78677,234791
19.79302,230556
19.79927,212459
19.80553,223583
19.81178,226044
19.81803,216455
19.82430,192380
19.83055,173971
19.83680,157062
19.84307,149687
19.84932,158333
19.85557,163382
19.86183,182625
19.86808,202036
19.87433,217640
19.88060,224325
19.88685,210023
19.89310,190977
19.89937,186124
19.90562,237703
19.91187,465065
19.91813,1155456
19.92438,2497498
19.93063,4167672
19.93690,5061219
19.94315,4073134
19.94940,2234414
19.95567,950156
19.96192,413021
19.96817,284589
19.97443,309543
19.98068,379267
19.98693,453580
19.99320,464618
19.99945,405776
20.00570,335106
20.01195,263993
20.01822,229394
20.02447,207187
20.03072,199699
20.03698,188548
20.04323,188217
20.04948,198260
20.05575,208216
20.06200,223474
20.06825,216931
20.07452,201141
20.08077,178088
20.08702,168302
20.09328,170076
20.09953,174056
20.10578,183903
20.11205,181826
20.11830,174412
20.12455,166043
20.13082,157911
20.13707,154256
20.14332,156254
20.14958,161653
20.15583,168370
20.16208,168552
20.16835,172184
20.17460,169612
20.18085,165071
20.18712,165392
20.19337,168704
20.19962,169694
20.20588,179080
20.21213,192627
20.21838,199422
20.22463,213989
20.23090,222139
20.23715,225944
20.24340,220299
20.24967,208286
20.25592,195719
20.26217,178548
20.26843,173595
20.27468,169028
20.28093,166876
20.28720,178077
20.29345,217834
20.29970,319615
20.30597,497961
20.31222,692348
20.31847,738758
20.32473,611023
20.33098,415990
20.33723,277077
20.34350,219218
20.34975,206202
20.35600,209562
20.36227,209180
20.36852,202392
20.37477,188718
20.38103,180858
20.38728,175871
20.39353,177721
20.39980,173236
20.40605,165590
20.41230,162600
20.41857,167739
20.42482,190385
20.43107,253822
20.43732,400642
20.44358,694544
20.44983,1001468
20.45608,1120267
20.46235,950919
20.46860,598451
20.47485,393774
20.48112,336649
20.48737,398820
20.49362,470911
20.49988,482025
20.50613,403318
20.51238,305653
20.51865,246224
20.52490,220226
20.53115,212742
20.53742,209705
20.54367,211996
20.54992,239905
20.55618,279958
20.56243,324192
20.56868,334400
20.57495,289426
20.58120,250024
20.58745,233937
20.59372,253665
20.59997,283128
20.60622,299370
20.61248,297445
20.61873,279370
20.62498,247862
20.63125,214189
20.63750,188294
20.64375,178265
20.65002,177410
20.65627,186680
20.66252,202293
20.66877,210886
20.67503,224744
20.68128,245939
20.68753,251512
20.69380,255472
20.70005,241389
20.70630,219577
20.71257,235766
20.71882,315917
20.72507,480497
20.73133,683282
20.73758,761911
20.74383,671205
20.75010,501478
20.75635,362363
20.76260,335511
20.76887,403158
20.77512,531376
20.78137,622267
20.78763,554863
20.79388,445313
20.80013,334247
20.80640,276136
20.81265,242858
20.81890,223752
20.82517,200954
20.83142,197186
20.83767,209592
20.84393,221328
20.85018,229317
20.85643,238583
20.86270,225732
20.86895,217474
20.87520,206535
20.88145,197536
20.88772,197412
20.89397,207073
20.90022,226290
20.90648,236441
20.91273,244523
20.91898,260482
20.92525,260366
20.93150,260794
20.93775,295138
20.94402,424102
20.95027,586349
20.95652,780596
20.96278,771042
20.96903,634102
20.97528,477274
20.98155,381172
20.98780,329740
20.99405,284493
21.00032,265096
21.00657,289122
21.01282,405001
21.01908,572376
21.02533,688737
21.03158,659641
21.03785,516379
21.04410,375938
21.05035,312998
21.05662,273743
21.06287,250761
21.06912,237789
21.07538,226425
21.08163,236185
21.08788,248935
21.09413,259576
21.10040,238556
21.10665,213739
21.11290,192121
21.11917,183285
21.12542,181538
21.13167,186378
21.13793,187642
21.14418,182099
21.15043,176868
21.15670,174576
21.16295,176424
21.16920,184889
21.17547,197179
21.18172,210735
21.18797,218107
21.19423,208905
21.20048,195474
21.20673,192739
21.21300,194857
21.21925,199899
21.22550,206570
21.23177,206606
21.23802,213149
21.24427,231193
21.25053,252400
21.25678,265328
21.26303,259353
21.26930,231338
21.27555,221139
21.28180,244085
21.28807,281966
21.29432,311742
21.30057,312906
21.30683,280050
21.31308,239587
21.31933,205980
21.32558,193288
21.33185,201358
21.33810,217034
21.34435,217580
21.35062,207836
21.35687,200232
21.36312,202920
21.36938,226952
21.37563,252857
21.38188,282101
21.38815,276968
21.39440,242117
21.40065,209130
21.40692,190085
21.41317,185935
21.41942,180878
21.42568,184808
21.43193,186422
21.43818,182326
21.44445,191687
21.45070,197433
21.45695,222351
21.46322,267363
21.46947,324051
21.47572,370659
21.48198,350471
21.48823,300181
21.49448,271586
21.50075,251821
21.50700,255855
21.51325,247696
21.51952,236538
21.52577,201286
21.53202,178351
21.53827,165688
21.54453,161219
21.55078,164703
21.55703,159833
21.56330,153646
21.56955,160407
21.57580,168815
21.58207,184719
21.58832,198480
21.59457,223368
21.60083,271956
21.60708,311364
21.61333,309798
21.61960,261075
21.62585,205072
21.63210,168365
21.63837,152404
21.64462,138413
21.65087,133075
21.65713,125848
21.66338,120558
21.66963,123864
21.67590,131344
21.68215,136125
21.68840,145273
21.69467,149497
21.70092,150876
21.70717,140573
21.71343,133091
21.71968,126204
21.72593,128110
21.73220,129948
21.73845,130986
21.74470,130600
21.75097,130719
21.75722,137603
21.76347,138912
21.76972,145453
21.77598,143006
21.78223,144298
21.78848,155061
21.79475,177218
21.80100,189135
21.80725,199769
21.81352,183711
21.81977,174257
21.82602,169580
21.83228,164780
21.83853,162662
21.84478,171688
21.85105,176590
21.85730,181893
21.86355,192986
21.86982,215683
21.87607,237582
21.88232,233278
21.88858,210140
21.89483,186634
21.90108,170667
21.90735,175589
21.91360,190861
21.91985,214906
21.92612,218035
21.93237,202639
21.93862,184607
21.94488,172276
21.95113,169635
21.95738,162158
21.96365,146995
21.96990,142456
21.97615,134981
21.98240,134126
21.98867,141849
21.99492,141407
22.00117,149285
22.00743,143453
22.01368,144502
22.01993,144022
22.02620,145520
22.03245,151594
22.03870,161698
22.04497,175372
22.05122,195148
22.05747,202813
22.06373,227079
22.06998,244425
22.07623,243256
22.08250,244647
22.08875,244815
22.09500,224244
22.10127,208608
22.10752,185226
22.11377,172521
22.12003,175050
22.12628,174315
22.13253,174898
22.13880,175270
22.14505,175734
22.15130,171328
22.15757,166042
22.16382,167512
22.17007,164607
22.17633,161960
22.18258,163048
22.18883,161494
22.19510,167446
22.20135,168694
22.20760,165905
22.21385,157377
22.22012,152137
22.22637,147745
22.23262,147134
22.23888,151919
22.24513,158754
22.25138,179629
22.25765,214491
22.26390,260349
22.27015,295258
22.27642,301684
22.28267,283427
22.28892,252378
22.29518,237465
22.30143,230311
22.30768,220642
22.31395,210986
22.32020,199531
22.32645,194608
22.33272,195495
22.33897,216980
22.34522,213001
22.35148,229379
22.35773,287632
22.36398,474925
22.37025,823691
22.37650,1142307
22.38275,1159327
22.38902,853350
22.39527,525586
22.40152,296967
22.40778,213229
22.41403,184232
22.42028,178206
22.42653,186977
22.43280,188294
22.43905,206027
22.44530,227032
22.45157,261437
22.45782,306679
22.46407,370007
22.47033,435724
22.47658,426059
22.48283,371462
22.48910,305408
22.49535,240167
22.50160,215090
22.50787,202868
22.51412,188636
22.52037,183887
22.52663,174187
22.53288,178029
22.53913,198262
22.54540,268360
22.55165,382415
22.55790,508188
22.56417,525159
22.57042,482371
22.57667,381362
22.58293,299015
22.58918,245785
22.59543,214452
22.60170,192770
22.60795,181651
22.61420,177726
22.62047,176110
22.62672,170500
22.63297,169930
22.63923,172106
22.64548,174186
22.65173,173759
22.65798,174920
22.66425,180475
22.67050,184480
22.67675,191863
22.68302,201205
22.68927,214158
22.69552,223809
22.70178,213701
22.70803,194738
22.71428,180045
22.72055,166456
22.72680,169500
22.73305,168006
22.73932,170494
22.74557,175079
22.75182,181846
22.75808,188722
22.76433,192831
22.77058,203573
22.77685,211833
22.78310,251990
22.78935,446670
22.79562,1307201
22.80187,3606209
22.80812,8023219
22.81438,1.368453E+07
22.82063,1.709365E+07
22.82688,1.552869E+07
22.83315,9820164
22.83940,4408327
22.84565,1604109
22.85192,733804
22.85817,444465
22.86442,338006
22.87067,294799
22.87693,270574
22.88318,248387
22.88943,237608
22.89570,223538
22.90195,210152
22.90820,200254
22.91447,198371
22.92072,200002
22.92697,196628
22.93323,198409
22.93948,199541
22.94573,204413
22.95200,205699
22.95825,193949
22.96450,194710
22.97077,190232
22.97702,203291
22.98327,224582
22.98953,240253
22.99578,256624
23.00203,248436
23.00830,228006
23.01455,205300
23.02080,188110
23.02707,175122
23.03332,170809
23.03957,172231
23.04583,176537
23.05208,176781
23.05833,180636
23.06460,189418
23.07085,218348
23.07710,281192
23.08335,376671
23.08962,444972
23.09587,421500
23.10212,347742
23.10838,275980
23.11463,220329
23.12088,192497
23.12715,173475
23.13340,168355
23.13965,164252
23.14592,158767
23.15217,155864
23.15842,152908
23.16468,152869
23.17093,145857
23.17718,147486
23.18345,147377
23.18970,152397
23.19595,150952
23.20222,153410
23.20847,163350
23.21472,160849
23.22098,160998
23.22723,157649
23.23348,149721
23.23975,150039
23.24600,149438
23.25225,150259
23.25852,156893
23.26477,158458
23.27102,161169
23.27728,155264
23.28353,148293
23.28978,149442
23.29605,153808
23.30230,168504
23.30855,195975
23.31480,267163
23.32107,359247
23.32732,416616
23.33357,410267
23.33983,339255
23.34608,259070
23.35233,209549
23.35860,189298
23.36485,170037
23.37110,169640
23.37737,155876
23.38362,156961
23.38987,162135
23.39613,159154
23.40238,164579
23.40863,163940
23.41490,153308
23.42115,155803
23.42740,153955
23.43367,156064
23.43992,155644
23.44617,160698
23.45243,167635
23.45868,179158
23.46493,189718
23.47120,202830
23.47745,205400
23.48370,225312
23.48997,243467
23.49622,260281
23.50247,268541
23.50873,294218
23.51498,352718
23.52123,435541
23.52748,513360
23.53375,529221
23.54000,478991
23.54625,371444
23.55252,285913
23.55877,232035
23.56502,221098
23.57128,227360
23.57753,277546
23.58378,352459
23.59005,423404
23.59630,432523
23.60255,389235
23.60882,333744
23.61507,264672
23.62132,230759
23.62758,206999
23.63383,194829
23.64008,195688
23.64635,195731
23.65260,211648
23.65885,204206
23.66512,197096
23.67137,189079
23.67762,178750
23.68388,177419
23.69013,184062
23.69638,203839
23.70265,215811
23.70890,216768
23.71515,220177
23.72142,219254
23.72767,262984
23.73392,335118
23.74017,388333
23.74643,403141
23.75268,353869
23.75893,278654
23.76520,228067
23.77145,205056
23.77770,197670
23.78397,197168
23.79022,198101
23.79647,197936
23.80273,198812
23.80898,202923
23.81523,215413
23.82150,229042
23.82775,249407
23.83400,256847
23.84027,250249
23.84652,225520
23.85277,210648
23.85903,199665
23.86528,200468
23.87153,198152
23.87780,204421
23.88405,216495
23.89030,243918
23.89657,277230
23.90282,311774
23.90907,318111
23.91533,296242
23.92158,265332
23.92783,243936
23.93410,232793
23.94035,226824
23.94660,225139
23.95287,256184
23.95912,361720
23.96537,701082
23.97162,1609756
23.97788,3299159
23.98413,5760408
23.99038,9595381
23.99665,1.467459E+07
24.00290,2.111018E+07
24.00915,2.612489E+07
24.01542,2.681673E+07
24.02167,2.170064E+07
24.02792,1.251738E+07
24.03418,5972695
24.04043,2735862
24.04668,1563307
24.05295,1080728
24.05920,814714
24.06545,655621
24.07172,554931
24.07797,518693
24.08422,508225
24.09048,495095
24.09673,503784
24.10298,610658
24.10925,1061788
24.11550,2121817
24.12175,3872088
24.12802,5640345
24.13427,6019023
24.14052,4689637
24.14678,2986105
24.15303,1676647
24.15928,955768
24.16555,627051
24.17180,481441
24.17805,423805
24.18430,400858
24.19057,438499
24.19682,534727
24.20307,737694
24.20933,1342730
24.21558,3334536
24.22183,7699780
24.22810,1.433231E+07
24.23435,2.143068E+07
24.24060,2.794283E+07
24.24687,3.535357E+07
24.25312,3.923947E+07
24.25937,4.093593E+07
24.26563,4.164837E+07
24.27188,4.143145E+07
24.27813,4.079285E+07
24.28440,3.762318E+07
24.29065,1.579365E+07
24.29690,4364300
24.30317,2273015
24.30942,1623430
24.31567,1314056
24.32193,1120299
24.32818,993010
24.33443,912025
24.34070,844453
24.34695,818704
24.35320,792727
24.35947,791972
24.36572,802371
24.37197,826527
24.37823,861086
24.38448,896671
24.39073,877895
24.39698,826304
24.40325,768567
24.40950,700163
24.41575,653342
24.42202,614917
24.42827,609034
24.43452,654800
24.44078,822531
24.44703,1061102
24.45328,1306438
24.45955,1310451
24.46580,1071617
24.47205,842063
24.47832,631941
24.48457,526816
24.49082,477318
24.49708,435748
24.50333,407268
24.50958,380886
24.51585,368442
24.52210,358596
24.52835,354969
24.53462,344683
24.54087,329185
24.54712,328653
24.55338,324676
24.55963,322799
24.56588,302496
24.57215,297396
24.57840,294278
24.58465,288892
24.59092,283270
24.59717,284112
24.60342,277543
24.60968,269417
24.61593,256529
24.62218,248628
24.62843,240113
24.63470,235761
24.64095,242180
24.64720,242699
24.65347,246170
24.65972,230473
24.66597,226537
24.67223,225702
24.67848,239382
24.68473,282550
24.69100,344958
24.69725,417376
24.70350,425390
24.70977,381995
24.71602,323490
24.72227,278242
24.72853,244980
24.73478,229104
24.74103,219285
24.74730,207504
24.75355,209784
24.75980,199304
24.76607,199619
24.77232,195857
24.77857,201039
24.78483,217823
24.79108,233172
24.79733,247575
24.80360,241022
24.80985,223867
24.81610,203767
24.82237,189520
24.82862,180225
24.83487,174306
24.84112,170327
24.84738,168470
24.85363,160350
24.85988,162580
24.86615,167997
24.87240,169477
24.87865,183296
24.88492,196270
24.89117,215855
24.89742,238229
24.90368,252664
24.90993,246501
24.91618,223308
24.92245,210508
24.92870,205486
24.93495,202548
24.94122,203958
24.94747,221284
24.95372,258639
24.95998,325051
24.96623,383252
24.97248,382148
24.97875,329689
24.98500,278276
24.99125,245871
24.99752,224481
25.00377,212739
25.01002,204274
25.01628,198300
25.02253,200429
25.02878,198899
25.03505,210892
25.04130,219375
25.04755,216244
25.05382,209842
25.06007,203658
25.06632,192589
25.07257,188554
25.07883,186040
25.08508,184545
25.09133,184579
25.09760,186714
25.10385,185338
25.11010,188511
25.11637,189491
25.12262,191911
25.12887,207031
25.13513,238368
25.14138,264916
25.14763,270038
25.15390,253055
25.16015,215752
25.16640,181500
25.17267,169444
25.17892,166168
25.18517,170245
25.19143,181949
25.19768,198119
25.20393,202558
25.21020,193451
25.21645,180668
25.22270,163048
25.22897,160364
25.23522,149437
25.24147,146117
25.24773,148305
25.25398,148650
25.26023,145472
25.26650,147987
25.27275,143710
25.27900,145278
25.28525,156814
25.29152,180901
25.29777,226109
25.30402,274643
25.31028,302351
25.31653,297512
25.32278,261823
25.32905,219528
25.33530,191266
25.34155,175211
25.34782,163748
25.35407,159031
25.36032,151654
25.36658,153420
25.37283,152911
25.37908,153676
25.38535,158832
25.39160,155038
25.39785,161221
25.40412,167933
25.41037,182337
25.41662,186889
25.42288,193793
25.42913,182388
25.43538,174181
25.44165,170067
25.44790,171124
25.45415,171170
25.46042,169429
25.46667,165415
25.47292,166153
25.47918,157447
25.48543,160358
25.49168,160477
25.49795,182422
25.50420,216898
25.51045,255240
25.51670,272753
25.52297,270861
25.52922,254438
25.53547,258493
25.54173,291572
25.54798,367026
25.55423,446705
25.56050,474172
25.56675,414495
25.57300,324502
25.57927,255984
25.58552,214899
25.59177,188634
25.59803,177079
25.60428,170185
25.61053,166957
25.61680,166548
25.62305,165831
25.62930,159357
25.63557,153414
25.64182,150524
25.64807,148391
25.65433,143572
25.66058,144500
25.66683,140851
25.67310,139742
25.67935,142795
25.68560,143055
25.69187,146181
25.69812,147578
25.70437,140582
25.71063,143167
25.71688,137623
25.72313,139305
25.72938,137500
25.73565,132745
25.74190,136514
25.74815,132183
25.75442,136357
25.76067,132284
25.76692,135154
25.77318,136457
25.77943,137329
25.78568,132589
25.79195,139097
25.79820,137094
25.80445,132208
25.81072,131830
25.81697,129884
25.82322,131748
25.82948,125752
25.83573,128377
25.84198,127545
25.84825,125024
25.85450,129157
25.86075,131984
25.86702,132388
25.87327,137939
25.87952,135964
25.88578,135370
25.89203,131623
25.89828,132714
25.90455,130925
25.91080,129437
25.91705,129083
25.92332,128479
25.92957,128024
25.93582,129841
25.94208,130835
25.94833,128908
25.95458,130638
25.96083,124861
25.96710,130328
25.97335,130440
25.97960,134948
25.98587,140423
25.99212,147241
25.99837,148135
26.00463,144819
26.01088,140580
26.01713,135765
26.02340,136711
26.02965,133642
26.03590,136713
26.04217,138882
26.04842,141022
26.05467,151816
26.06093,152400
26.06718,154331
26.07343,151339
26.07970,146709
26.08595,141036
26.09220,138170
26.09847,135948
26.10472,130161
26.11097,134860
26.11723,131225
26.12348,136248
26.12973,133398
26.13600,133400
26.14225,130959
26.14850,136938
26.15477,130790
26.16102,125866
26.16727,129678
26.17352,134857
26.17978,131226
26.18603,133671
26.19228,133210
26.19855,133940
26.20480,130916
26.21105,127677
26.21732,131198
26.22357,128440
26.22982,131420
26.23608,129595
26.24233,132223
26.24858,131653
26.25485,127060
26.26110,130218
26.26735,126149
26.27362,131540
26.27987,127341
26.28612,129874
26.29238,131460
26.29863,129688
26.30488,129348
26.31115,132833
26.31740,131356
26.32365,136396
26.32992,138421
26.33617,139699
26.34242,136250
26.34868,140079
26.35493,136033
26.36118,138650
26.36745,147967
26.37370,177803
26.37995,238903
26.38620,308480
26.39247,380510
26.39872,372216
26.40497,310448
26.41123,236257
26.41748,183387
26.42373,163245
26.43000,153920
26.43625,149771
26.44250,148177
26.44877,142526
26.45502,145308
26.46127,142325
26.46753,144078
26.47378,142232
26.48003,144812
26.48630,149315
26.49255,148882
26.49880,149136
26.50507,150680
26.51132,149114
26.51757,145867
26.52383,148242
26.53008,150014
26.53633,164752
26.54260,171534
26.54885,175478
26.55510,174594
26.56137,162545
26.56762,157755
26.57387,148539
26.58013,149315
26.58638,144503
26.59263,144982
26.59890,150635
26.60515,147242
26.61140,148683
26.61765,154910
26.62392,165661
26.63017,170003
26.63642,166774
26.64268,158174
26.64893,152869
26.65518,151325
26.66145,153797
26.66770,168301
26.67395,185545
26.68022,195349
26.68647,187869
26.69272,187720
26.69898,185161
26.70523,200536
26.71148,215605
26.71775,227653
26.72400,225939
26.73025,205320
26.73652,186129
26.74277,169326
26.74902,172748
26.75528,172384
26.76153,191494
26.76778,240659
26.77405,302181
26.78030,359545
26.78655,382189
26.79282,351136
26.79907,314816
26.80532,285986
26.81158,271512
26.81783,254655
26.82408,242542
26.83033,272951
26.83660,332265
26.84285,455338
26.84910,579713
26.85537,589215
26.86162,511914
26.86787,391396
26.87413,293950
26.88038,252455
26.88663,249674
26.89290,278133
26.89915,337832
26.90540,425960
26.91167,627608
26.91792,1299675
26.92417,2911486
26.93043,6061708
26.93668,1.06581E+07
26.94293,1.683131E+07
26.94920,2.161635E+07
26.95545,2.334112E+07
26.96170,1.665408E+07
26.96797,8082403
26.97422,3784877
26.98047,2221443
26.98673,1456649
26.99298,976607
26.99923,693523
27.00550,550649
27.01175,476452
27.01800,471632
27.02427,577451
27.03052,781174
27.03677,1001387
27.04302,1016800
27.04928,860523
27.05553,668589
27.06178,515751
27.06805,428884
27.07430,384980
27.08055,351777
27.08682,329340
27.09307,302780
27.09932,278382
27.10558,260838
27.11183,248520
27.11808,241919
27.12435,232488
27.13060,247048
27.13685,282465
27.14312,320554
27.14937,358536
27.15562,372333
27.16188,353815
27.16813,300750
27.17438,279080
27.18065,255078
27.18690,253424
27.19315,243162
27.19942,239701
27.20567,238332
27.21192,229381
27.21818,229790
27.22443,229868
27.23068,223907
27.23695,227610
27.24320,221281
27.24945,224703
27.25572,228414
27.26197,232682
27.26822,228314
27.27447,228061
27.28073,228362
27.28698,220339
27.29323,217569
27.29950,213322
27.30575,213035
27.31200,215757
27.31827,207598
27.32452,206981
27.33077,206579
27.33703,206370
27.34328,201437
27.34953,206939
27.35580,209216
27.36205,207455
27.36830,212326
27.37457,213735
27.38082,211385
27.38707,214213
27.39333,209526
27.39958,214683
27.40583,219785
27.41210,234149
27.41835,242435
27.42460,248672
27.43087,248981
27.43712,236513
27.44337,223467
27.44963,219369
27.45588,210681
27.46213,204143
27.46840,202722
27.47465,194773
27.48090,193248
27.48715,195579
27.49342,197412
27.49967,199035
27.50592,196651
27.51218,199520
27.51843,188475
27.52468,192531
27.53095,200576
27.53720,194630
27.54345,200952
27.54972,194195
27.55597,193080
27.56222,193084
27.56848,199462
27.57473,190068
27.58098,195529
27.58725,190667
27.59350,194315
27.59975,194214
27.60602,199866
27.61227,201140
27.61852,190717
27.62478,191299
27.63103,189831
27.63728,193824
27.64355,196301
27.64980,193620
27.65605,198491
27.66232,196683
27.66857,194219
27.67482,195387
27.68108,200002
27.68733,207301
27.69358,200419
27.69983,205057
27.70610,208457
27.71235,201235
27.71860,202253
27.72487,207661
27.73112,207335
27.73737,211755
27.74363,215398
27.74988,215568
27.75613,213347
27.76240,209416
27.76865,207896
27.77490,208113
27.78117,211336
27.78742,215580
27.79367,205118
27.79993,200766
27.80618,201339
27.81243,200944
27.81870,207050
27.82495,198686
27.83120,202128
27.83747,198792
27.84372,203777
27.84997,202982
27.85623,209286
27.86248,219542
27.86873,229098
27.87500,237519
27.88125,232536
27.88750,226679
27.89377,216837
27.90002,212590
27.90627,210637
27.91253,216463
27.91878,208783
27.92503,211336
27.93128,210303
27.93755,208769
27.94380,206804
27.95005,214446
27.95632,201196
27.96257,210464
27.96882,213058
27.97508,205204
27.98133,214082
27.98758,210170
27.99385,219897
28.00010,226256
28.00635,226472
28.01262,219866
28.01887,225445
28.02512,216834
28.03138,219053
28.03763,208707
28.04388,207814
28.05015,217236
28.05640,214446
28.06265,212747
28.06892,215144
28.07517,208595
28.08142,211314
28.08768,208427
28.09393,218793
28.10018,208917
28.10645,212793
28.11270,215691
28.11895,213246
28.12522,210429
28.13147,217824
28.13772,218104
28.14397,217890
28.15023,220629
28.15648,221016
28.16273,217100
28.16900,210769
28.17525,213573
28.18150,211625
28.18777,211945
28.19402,216323
28.20027,216460
28.20653,215414
28.21278,215979
28.21903,219180
28.22530,210808
28.23155,211642
28.23780,221655
28.24407,220629
28.25032,220578
28.25657,223707
28.26283,212183
28.26908,210407
28.27533,214818
28.28160,220722
28.28785,219083
28.29410,212433
28.30037,222766
28.30662,217003
28.31287,227813
28.31913,229018
28.32538,227491
28.33163,223290
28.33790,228334
28.34415,237853
28.35040,234872
28.35667,236556
28.36292,245555
28.36917,256312
28.37542,264300
28.38168,268460
28.38793,270546
28.39418,274247
28.40045,297319
28.40670,284264
28.41295,291872
28.41922,292896
28.42547,293532
28.43172,308269
28.43798,304865
28.44423,301843
28.45048,296375
28.45675,294468
28.46300,287959
28.46925,285880
28.47552,290568
28.48177,284713
28.48802,277794
28.49428,275161
28.50053,279012
28.50678,273426
28.51305,268920
28.51930,266379
28.52555,252815
28.53182,252367
28.53807,245436
28.54432,249788
28.55058,245131
28.55683,246580
28.56308,244908
28.56935,242640
28.57560,235570
28.58185,230573
28.58812,231997
28.59437,231789
28.60062,228987
28.60687,226959
28.61313,226662
28.61938,229094
28.62563,226080
28.63190,229195
28.63815,230000
28.64440,227917
28.65067,230031
28.65692,227103
28.66317,226331
28.66943,229957
28.67568,224994
28.68193,225119
28.68820,222098
28.69445,227916
28.70070,230457
28.70697,228989
28.71322,221532
28.71947,219436
28.72573,222908
28.73198,229737
28.73823,222956
28.74450,225151
28.75075,230914
28.75700,226222
28.76327,224510
28.76952,225031
28.77577,216985
28.78203,221324
28.78828,214403
28.79453,215443
28.80080,225885
28.80705,222602
28.81330,221258
28.81955,214775
28.82582,215773
28.83207,216547
28.83832,218577
28.84458,221304
28.85083,215645
28.85708,217150
28.86335,215101
28.86960,219771
28.87585,213403
28.88212,218845
28.88837,215870
28.89462,218724
28.90088,212353
28.90713,212164
28.91338,211293
28.91965,212207
28.92590,212723
28.93215,214676
28.93842,217041
28.94467,214362
28.95092,219200
28.95718,211383
28.96343,211585
28.96968,222486
28.97595,212638
28.98220,210214
28.98845,221807
28.99472,214567
29.00097,213343
29.00722,212031
29.01348,213402
29.01973,219495
29.02598,215217
29.03223,215160
29.03850,214322
29.04475,218074
29.05100,219377
29.05727,210779
29.06352,215283
29.06977,217128
29.07603,216646
29.08228,216848
29.08853,214304
29.09480,216883
29.10105,216983
29.10730,209338
29.11357,212719
29.11982,209944
29.12607,210709
29.13233,212330
29.13858,211828
29.14483,214460
29.15110,211409
29.15735,208123
29.16360,206464
29.16987,210572
29.17612,213024
29.18237,206805
29.18863,209410
29.19488,217683
29.20113,205933
29.20740,203751
29.21365,210104
29.21990,209875
29.22617,219894
29.23242,215627
29.23867,225033
29.24493,216143
29.25118,225308
29.25743,228044
29.26368,227049
29.26995,222411
29.27620,224320
29.28245,215014
29.28872,212820
29.29497,213084
29.30122,212561
29.30748,210095
29.31373,214685
29.31998,213937
29.32625,208399
29.33250,208016
29.33875,206206
29.34502,209770
29.35127,207245
29.35752,205688
29.36378,212020
29.37003,214407
29.37628,211623
29.38255,207810
29.38880,213017
29.39505,207781
29.40132,213433
29.40757,210334
29.41382,214990
29.42008,207479
29.42633,208033
29.43258,208132
29.43885,208705
29.44510,208379
29.45135,205975
29.45762,207313
29.46387,213696
29.47012,212433
29.47637,210944
29.48263,207888
29.48888,209522
29.49513,204246
29.50140,210128
29.50765,215450
29.51390,210972
29.52017,212427
29.52642,203403
29.53267,205892
29.53893,210938
29.54518,206618
29.55143,202994
29.55770,201402
29.56395,206193
29.57020,208393
29.57647,210680
29.58272,203650
29.58897,203222
29.59523,204109
29.60148,202637
29.60773,204820
29.61400,201837
29.62025,205868
29.62650,202422
29.63277,203041
29.63902,205040
29.64527,205556
29.65153,201912
29.65778,205633
29.66403,202114
29.67030,202221
29.67655,203994
29.68280,209449
29.68905,207464
29.69532,200906
29.70157,200227
29.70782,201774
29.71408,198631
29.72033,205143
29.72658,206469
29.73285,202978
29.73910,208371
29.74535,205793
29.75162,204146
29.75787,196988
29.76412,209235
29.77038,203604
29.77663,201049
29.78288,199483
29.78915,202572
29.79540,204517
29.80165,201472
29.80792,206434
29.81417,198807
29.82042,211743
29.82668,200822
29.83293,202416
29.83918,200174
29.84545,198795
29.85170,199345
29.85795,197840
29.86422,202645
29.87047,196897
29.87672,198249
29.88298,198502
29.88923,196691
29.89548,203735
29.90175,197711
29.90800,201358
29.91425,205595
29.92050,198612
29.92677,199537
29.93302,203852
29.93927,203426
29.94553,204107
29.95178,200084
29.95803,197252
29.96430,197216
29.97055,202435
29.97680,207226
29.98307,201767
29.98932,194640
29.99557,205665
30.00183,197682
30.00808,198676
30.01433,197788
30.02060,195117
30.02685,202175
30.03310,204011
30.03937,203896
30.04562,193648
30.05187,199650
30.05813,198411
30.06438,200677
30.07063,200498
30.07690,197324
30.08315,196597
30.08940,205640
30.09567,194784
30.10192,196411
30.10817,201117
30.11443,198816
30.12068,197656
30.12693,195441
30.13318,195138
30.13945,194788
30.14570,194140
30.15195,197282
30.15822,201102
30.16447,196119
30.17072,198756
30.17698,199227
30.18323,196126
30.18948,193095
30.19575,191467
30.20200,192328
30.20825,188960
30.21452,190223
30.22077,194845
30.22702,194630
30.23328,193006
30.23953,193394
30.24578,199018
30.25205,190172
30.25830,198996
30.26455,201137
30.27082,193238
30.27707,194148
30.28332,198289
30.28958,193170
30.29583,194080
30.30208,195793
30.30835,194743
30.31460,193843
30.32085,190613
30.32712,190933
30.33337,197019
30.33962,194616
30.34587,194524
30.35213,195754
30.35838,197319
30.36463,193851
30.37090,197628
30.37715,192972
30.38340,192463
30.38967,193721
30.39592,189639
30.40217,194619
30.40843,192624
30.41468,187228
30.42093,190496
30.42720,186795
30.43345,190192
30.43970,194844
30.44597,193850
30.45222,192481
30.45847,195712
30.46473,196824
30.47098,195870
30.47723,189029
30.48350,191677
30.48975,190001
30.49600,194867
30.50227,187630
30.50852,196879
30.51477,190691
30.52103,196236
30.52728,188622
30.53353,195924
30.53980,193475
30.54605,188704
30.55230,188677
30.55857,190653
30.56482,196409
30.57107,189868
30.57732,192489
30.58358,194452
30.58983,189085
30.59608,187940
30.60235,188541
30.60860,192774
30.61485,187052
30.62112,190575
30.62737,195090
30.63362,183466
30.63988,192103
30.64613,189718
30.65238,189979
30.65865,189705
30.66490,193922
30.67115,192235
30.67742,188870
30.68367,192536
30.68992,194335
30.69618,200469
30.70243,204292
30.70868,204973
30.71495,210047
30.72120,208768
30.72745,210486
30.73372,207234
30.73997,209023
30.74622,203552
30.75248,202062
30.75873,195172
30.76498,196717
30.77125,190350
30.77750,190346
30.78375,187184
30.79000,187012
30.79627,199543
30.80252,195392
30.80877,197339
30.81503,196858
30.82128,187328
30.82753,191708
30.83380,192169
30.84005,189516
30.84630,190325
30.85257,186440
30.85882,188640
30.86507,192248
30.87133,191480
30.87758,188266
30.88383,188448
30.89010,195585
30.89635,187694
30.90260,190225
30.90887,186694
30.91512,185745
30.92137,184253
30.92763,191607
30.93388,190946
30.94013,189621
30.94640,189562
30.95265,188197
30.95890,186470
30.96517,188174
30.97142,188387
30.97767,186649
30.98393,193122
30.99018,190850
30.99643,192649
31.00270,185454
31.00895,189555
31.01520,197868
31.02145,197109
31.02772,194574
31.03397,195010
31.04022,196383
31.04648,201165
31.05273,194614
31.05898,189106
31.06525,192630
31.07150,183004
31.07775,187690
31.08402,184145
31.09027,194725
31.09652,187590
31.10278,183708
31.10903,180993
31.11528,186417
31.12155,184691
31.12780,183521
31.13405,184975
31.14032,193626
31.14657,184532
31.15282,186427
31.15908,180368
31.16533,186053
31.17158,181800
31.17785,182337
31.18410,181920
31.19035,181050
31.19662,185057
31.20287,193613
31.20912,180276
31.21538,184115
31.22163,181420
31.22788,183025
31.23413,181649
31.24040,181535
31.24665,179844
31.25290,183652
31.25917,189635
31.26542,184580
31.27167,182110
31.27793,187470
31.28418,184796
31.29043,187332
31.29670,179696
31.30295,183337
31.30920,182508
31.31547,179088
31.32172,186165
31.32797,181010
31.33423,186449
31.34048,186383
31.34673,179802
31.35300,184676
31.35925,178677
31.36550,191141
31.37177,181354
31.37802,180970
31.38427,189821
31.39053,183480
31.39678,182764
31.40303,185816
31.40930,189960
31.41555,185784
31.42180,188003
31.42807,184990
31.43432,187054
31.44057,190705
31.44683,188386
31.45308,184322
31.45933,188572
31.46558,180691
31.47185,185656
31.47810,184070
31.48435,190475
31.49062,186035
31.49687,180989
31.50312,183946
31.50938,190470
31.51563,182727
31.52188,182015
31.52815,187485
31.53440,181151
31.54065,183065
31.54692,184842
31.55317,181553
31.55942,182682
31.56568,178257
31.57193,184914
31.57818,187594
31.58445,184873
31.59070,177713
31.59695,179066
31.60322,181833
31.60947,175336
31.61572,184168
31.62198,175399
31.62823,181064
31.63448,178217
31.64075,182677
31.64700,187005
31.65325,180041
31.65952,176379
31.66577,177907
31.67202,175322
31.67827,184512
31.68453,179871
31.69078,181960
31.69703,176465
31.70330,183556
31.70955,183353
31.71580,182489
31.72207,175570
31.72832,175757
31.73457,177510
31.74083,184118
31.74708,178435
31.75333,174648
31.75960,182874
31.76585,180324
31.77210,181068
31.77837,183125
31.78462,185830
31.79087,178973
31.79713,182116
31.80338,172211
31.80963,178675
31.81590,179532
31.82215,179179
31.82840,175256
31.83467,180035
31.84092,177052
31.84717,177026
31.85343,176395
31.85968,179257
31.86593,181455
31.87220,180467
31.87845,178673
31.88470,176412
31.89097,179400
31.89722,172729
31.90347,173729
31.90972,177488
31.91598,173901
31.92223,174037
31.92848,175963
31.93475,174802
31.94100,174533
31.94725,172379
31.95352,177698
31.95977,168723
31.96602,173458
31.97228,177438
31.97853,176240
31.98478,178865
31.99105,173693
31.99730,176623
32.00355,173494
32.00982,168373
32.01607,175813
32.02232,176083
32.02858,180127
32.03483,177388
32.04108,175990
32.04735,175136
32.05360,171844
32.05985,177237
32.06612,170642
32.07237,170189
32.07862,173171
32.08488,170924
32.09113,176306
32.09738,173938
32.10365,174750
32.10990,171969
32.11615,170154
32.12240,175755
32.12867,172317
32.13492,173275
32.14117,170944
32.14743,173211
32.15368,175919
32.15993,171869
32.16620,170217
32.17245,174058
32.17870,166759
32.18497,169436
32.19122,171224
32.19747,176140
32.20373,171492
32.20998,170339
32.21623,171169
32.22250,171549
32.22875,171705
32.23500,173019
32.24127,170357
32.24752,173549
32.25377,171742
32.26003,174855
32.26628,178642
32.27253,174183
32.27880,174177
32.28505,176319
32.29130,173947
32.29757,172620
32.30382,171116
32.31007,171962
32.31633,169152
32.32258,168386
32.32883,169703
32.33508,169261
32.34135,172035
32.34760,169963
32.35385,171491
32.36012,167444
32.36637,175951
32.37262,169906
32.37888,166483
32.38513,170816
32.39138,169691
32.39765,173439
32.40390,166540
32.41015,170670
32.41642,173054
32.42267,170008
32.42892,172818
32.43518,175232
32.44143,173005
32.44768,176266
32.45395,173683
32.46020,170742
32.46645,169469
32.47272,167725
32.47897,174683
32.48522,164208
32.49148,174254
32.49773,162264
32.50398,170509
32.51025,168460
32.51650,167633
32.52275,165529
32.52902,169643
32.53527,176625
32.54152,167586
32.54778,162847
32.55403,164500
32.56028,171255
32.56653,165674
32.57280,177532
32.57905,169799
32.58530,167835
32.59157,169111
32.59782,167265
32.60407,171266
32.61033,169782
32.61658,167851
32.62283,169256
32.62910,167180
32.63535,166635
32.64160,163987
32.64787,163001
32.65412,169992
32.66037,170391
32.66663,166065
32.67288,167672
32.67913,171181
32.68540,164237
32.69165,165402
32.69790,168782
32.70417,167347
32.71042,163759
32.71667,169614
32.72293,167103
32.72918,163304
32.73543,171837
32.74170,165162
32.74795,167231
32.75420,171125
32.76047,168755
32.76672,169366
32.77297,166890
32.77922,167811
32.78548,163364
32.79173,165184
32.79798,163115
32.80425,163016
32.81050,171976
32.81675,161724
32.82302,163814
32.82927,165466
32.83552,169031
32.84178,163504
32.84803,160456
32.85428,166362
32.86055,167919
32.86680,164236
32.87305,163232
32.87932,166231
32.88557,165885
32.89182,162320
32.89808,168502
32.90433,159395
32.91058,167611
32.91685,161669
32.92310,163606
32.92935,167383
32.93562,161688
32.94187,166762
32.94812,165475
32.95438,159977
32.96063,164142
32.96688,164261
32.97315,163769
32.97940,170960
32.98565,162472
32.99190,164237
32.99817,165830
33.00442,163781
33.01067,167800
33.01693,160921
33.02318,165405
33.02943,160418
33.03570,164132
33.04195,162593
33.04820,164004
33.05447,160258
33.06072,165439
33.06697,164049
33.07323,169144
33.07948,159737
33.08573,164984
33.09200,166104
33.09825,167897
33.10450,159830
33.11077,163104
33.11702,162403
33.12327,166767
33.12953,165486
33.13578,162193
33.14203,167607
33.14830,165933
33.15455,165514
33.16080,161169
33.16707,169832
33.17332,167398
33.17957,171655
33.18583,173288
33.19208,171072
33.19833,175559
33.20460,173231
33.21085,176107
33.21710,173605
33.22335,176288
33.22962,175251
33.23587,168737
33.24212,166506
33.24838,164203
33.25463,162390
33.26088,163233
33.26715,163468
33.27340,167663
33.27965,163063
33.28592,163960
33.29217,163736
33.29842,157535
33.30468,163446
33.31093,165441
33.31718,163582
33.32345,159170
33.32970,160607
33.33595,165005
33.34222,161402
33.34847,157593
33.35472,158557
33.36098,161960
33.36723,161074
33.37348,159792
33.37975,160115
33.38600,165325
33.39225,161224
33.39852,166846
33.40477,158559
33.41102,160923
33.41728,164582
33.42353,170004
33.42978,162793
33.43603,161767
33.44230,166002
33.44855,160146
33.45480,159012
33.46107,156149
33.46732,161979
33.47357,163217
33.47983,157779
33.48608,156533
33.49233,156134
33.49860,159562
33.50485,160412
33.51110,157576
33.51737,157159
33.52362,157241
33.52987,158240
33.53613,157826
33.54238,161933
33.54863,160900
33.55490,158071
33.56115,157467
33.56740,160965
33.57367,162323
33.57992,162802
33.58617,163519
33.59243,157139
33.59868,157353
33.60493,163416
33.61120,163071
33.61745,156485
33.62370,157561
33.62997,156932
33.63622,159724
33.64247,160533
33.64873,157249
33.65498,155895
33.66123,155989
33.66748,160076
33.67375,154974
33.68000,156379
33.68625,157887
33.69252,161111
33.69877,163854
33.70502,155701
33.71128,158455
33.71753,161839
33.72378,155464
33.73005,158856
33.73630,152609
33.74255,159833
33.74882,156657
33.75507,156417
33.76132,156591
33.76758,155607
33.77383,160816
33.78008,155353
33.78635,155078
33.79260,158599
33.79885,159265
33.80512,156806
33.81137,156143
33.81762,154498
33.82388,155864
33.83013,152455
33.83638,156519
33.84265,161415
33.84890,158789
33.85515,157821
33.86142,157546
33.86767,156292
33.87392,152392
33.88017,153131
33.88643,157042
33.89268,160170
33.89893,151634
33.90520,159066
33.91145,155275
33.91770,152403
33.92397,158666
33.93022,150562
33.93647,155731
33.94273,156993
33.94898,153820
33.95523,157993
33.96150,155060
33.96775,152335
33.97400,158437
33.98027,152999
33.98652,157378
33.99277,157199
33.99903,156304
34.00528,161232
34.01153,153485
34.01780,156487
34.02405,158669
34.03030,154539
34.03657,160436
34.04282,153938
34.04907,158152
34.05533,155317
34.06158,154310
34.06783,158925
34.07410,155662
34.08035,153022
34.08660,155235
34.09287,153292
34.09912,153727
34.10537,157981
34.11162,160185
34.11788,156028
34.12413,151875
34.13038,151043
34.13665,150670
34.14290,156691
34.14915,151948
34.15542,150411
34.16167,151796
34.16792,151660
34.17418,153234
34.18043,153306
34.18668,151062
34.19295,156203
34.19920,152357
34.20545,155535
34.21172,154575
34.21797,156046
34.22422,152619
34.23048,150712
34.23673,154165
34.24298,157159
34.24925,150872
34.25550,146507
34.26175,150165
34.26802,156407
34.27427,153229
34.28052,148131
34.28678,153423
34.29303,149374
34.29928,152138
34.30555,154184
34.31180,151744
34.31805,156494
34.32430,150365
34.33057,154924
34.33682,150888
34.34307,149023
34.34933,151439
34.35558,148958
34.36183,148220
34.36810,153299
34.37435,149809
34.38060,149919
34.38687,150878
34.39312,148149
34.39937,152959
34.40563,151463
34.41188,149427
34.41813,155473
34.42440,151713
34.43065,153744
34.43690,154630
34.44317,151020
34.44942,147690
34.45567,153908
34.46193,149561
34.46818,153322
34.47443,154666
34.48070,156336
34.48695,146245
34.49320,149440
34.49947,148987
34.50572,147710
34.51197,150864
34.51823,153888
34.52448,149421
34.53073,146356
34.53700,154945
34.54325,147860
34.54950,144962
34.55575,147828
34.56202,152851
34.56827,145787
34.57452,151228
34.58078,149786
34.58703,151442
34.59328,148057
34.59955,150343
34.60580,148123
34.61205,147218
34.61832,150495
34.62457,146339
34.63082,150821
34.63708,151921
34.64333,150360
34.64958,154443
34.65585,145977
34.66210,148187
34.66835,148281
34.67462,149736
34.68087,149106
34.68712,147009
34.69338,148639
34.69963,148354
34.70588,146128
34.71215,151593
34.71840,151816
34.72465,149587
34.73092,146462
34.73717,145881
34.74342,143762
34.74968,148186
34.75593,147735
34.76218,146209
34.76843,150697
34.77470,144973
34.78095,148948
34.78720,147357
34.79347,143860
34.79972,149606
34.80597,143713
34.81223,142834
34.81848,146835
34.82473,143763
34.83100,148939
34.83725,147352
34.84350,145945
34.84977,146097
34.85602,151772
34.86227,147680
34.86853,146573
34.87478,143536
34.88103,144098
34.88730,146921
34.89355,150788
34.89980,147789
34.90607,142825
34.91232,145828
34.91857,146152
34.92483,143960
34.93108,150645
34.93733,149866
34.94360,143708
34.94985,148394
34.95610,148773
34.96237,144601
34.96862,143369
34.97487,146899
34.98112,143645
34.98738,149300
34.99363,144064
34.99988,143724
35.00615,142994
35.01240,148414
35.01865,142433
35.02492,143026
35.03117,149863
35.03742,147566
35.04368,151309
35.04993,142736
35.05618,150138
35.06245,147818
35.06870,142430
35.07495,142725
35.08122,143299
35.08747,148388
35.09372,152679
35.09998,142695
35.10623,141384
35.11248,147182
35.11875,144371
35.12500,148760
35.13125,143080
35.13752,146415
35.14377,145443
35.15002,140927
35.15628,142705
35.16253,139404
35.16878,145365
35.17505,143940
35.18130,144539
35.18755,143789
35.19382,142970
35.20007,144752
35.20632,140806
35.21257,142579
35.21883,140801
35.22508,143995
35.23133,144490
35.23760,149370
35.24385,142528
35.25010,140074
35.25637,144399
35.26262,144815
35.26887,144079
35.27513,140916
35.28138,142585
35.28763,140462
35.29390,142210
35.30015,143284
35.30640,147088
35.31267,140988
35.31892,144271
35.32517,142623
35.33143,141729
35.33768,145392
35.34393,139640
35.35020,143115
35.35645,143284
35.36270,144979
35.36897,141453
35.37522,145903
35.38147,141687
35.38773,140643
35.39398,143490
35.40023,144670
35.40650,145309
35.41275,145594
35.41900,142913
35.42525,145364
35.43152,140737
35.43777,141782
35.44402,140569
35.45028,143153
35.45653,145211
35.46278,138186
35.46905,144544
35.47530,140085
35.48155,146131
35.48782,147623
35.49407,143748
35.50032,142696
35.50658,146114
35.51283,143754
35.51908,145103
35.52535,144057
35.53160,144377
35.53785,147278
35.54412,148773
35.55037,141628
35.55662,140193
35.56288,138981
35.56913,143451
35.57538,143778
35.58165,145375
35.58790,141912
35.59415,147677
35.60042,142656
35.60667,141240
35.61292,143214
35.61918,141929
35.62543,142179
35.63168,140634
35.63793,141324
35.64420,141453
35.65045,141772
35.65670,148420
35.66297,146271
35.66922,146443
35.67547,143101
35.68173,138864
35.68798,140835
35.69423,141684
35.70050,144062
35.70675,147033
35.71300,139746
35.71927,136819
35.72552,144464
35.73177,141029
35.73803,140861
35.74428,138351
35.75053,139174
35.75680,142731
35.76305,140543
35.76930,138515
35.77557,141030
35.78182,137851
35.78807,141068
35.79433,142165
35.80058,135262
35.80683,138980
35.81310,139828
35.81935,142721
35.82560,142224
35.83187,137998
35.83812,138750
35.84437,139292
35.85063,138757
35.85688,137481
35.86313,136690
35.86938,144098
35.87565,135200
35.88190,139740
35.88815,142205
35.89442,139898
35.90067,135408
35.90692,139145
35.91318,135417
35.91943,135945
35.92568,142376
35.93195,138301
35.93820,144144
35.94445,139428
35.95072,137894
35.95697,137874
35.96322,139398
35.96948,138435
35.97573,137695
35.98198,140795
35.98825,137949
35.99450,139380
36.00075,136784
36.00702,139138
36.01327,137293
36.01952,140942
36.02578,141636
36.03203,138890
36.03828,136511
36.04455,143310
36.05080,141545
36.05705,137092
36.06332,142947
36.06957,137804
36.07582,139878
36.08207,142180
36.08833,142868
36.09458,138452
36.10083,141470
36.10710,138554
36.11335,140940
36.11960,137554
36.12587,133470
36.13212,138602
36.13837,138787
36.14463,137085
36.15088,139680
36.15713,137535
36.16340,135831
36.16965,140643
36.17590,135488
36.18217,140637
36.18842,137751
36.19467,132361
36.20093,136221
36.20718,134496
36.21343,136470
36.21970,135498
36.22595,138136
36.23220,136366
36.23847,138927
36.24472,141705
36.25097,138671
36.25723,143867
36.26348,141416
36.26973,147676
36.27600,147275
36.28225,154631
36.28850,156983
36.29475,165021
36.30102,167346
36.30727,184411
36.31352,190868
36.31978,195581
36.32603,209420
36.33228,218489
36.33855,229217
36.34480,241808
36.35105,247793
36.35732,255891
36.36357,249262
36.36982,248497
36.37608,240320
36.38233,237164
36.38858,234223
36.39485,221922
36.40110,215657
36.40735,206771
36.41362,195047
36.41987,185954
36.42612,179366
36.43238,171800
36.43863,166985
36.44488,161948
36.45115,159296
36.45740,153831
36.46365,155445
36.46992,157130
36.47617,148341
36.48242,149278
36.48868,150556
36.49493,153141
36.50118,146172
36.50745,146932
36.51370,148484
36.51995,147559
36.52620,145008
36.53247,143781
36.53872,144706
36.54497,145412
36.55123,142668
36.55748,144857
36.56373,145215
36.57000,142385
36.57625,143835
36.58250,143434
36.58877,147981
36.59502,149067
36.60127,140076
36.60753,142325
36.61378,144340
36.62003,138591
36.62630,141540
36.63255,144996
36.63880,140955
36.64507,143775
36.65132,139974
36.65757,142185
36.66383,138559
36.67008,144925
36.67633,138475
36.68260,139758
36.68885,142441
36.69510,138314
36.70137,136132
36.70762,136704
36.71387,137067
36.72013,134412
36.72638,138731
36.73263,138246
36.73890,139526
36.74515,137568
36.75140,141966
36.75765,137463
36.76392,141676
36.77017,137686
36.77642,138789
36.78268,134359
36.78893,138706
36.79518,136305
36.80145,140175
36.80770,143082
36.81395,140656
36.82022,134555
36.82647,135724
36.83272,138918
36.83898,136449
36.84523,137238
36.85148,138608
36.85775,136651
36.86400,140631
36.87025,141087
36.87652,134671
36.88277,137996
36.88902,131500
36.89528,136576
36.90153,135200
36.90778,135266
36.91405,138309
36.92030,136022
36.92655,135612
36.93282,134731
36.93907,135041
36.94532,134394
36.95158,135014
36.95783,134205
36.96408,139748
36.97033,133952
36.97660,138315
36.98285,136988
36.98910,135768
36.99537,131361
37.00162,136321
37.00787,132988
37.01413,138740
37.02038,131998
37.02663,133856
37.03290,139902
37.03915,137003
37.04540,134695
37.05167,133009
37.05792,131600
37.06417,136934
37.07043,133505
37.07668,135697
37.08293,136582
37.08920,138119
37.09545,134266
37.10170,134253
37.10797,132876
37.11422,134311
37.12047,135850
37.12673,136320
37.13298,130378
37.13923,132444
37.14550,131821
37.15175,136325
37.15800,133178
37.16427,132456
37.17052,138634
37.17677,134697
37.18303,132718
37.18928,134102
37.19553,132311
37.20178,131648
37.20805,133751
37.21430,131458
37.22055,136042
37.22682,134801
37.23307,129409
37.23932,134936
37.24558,132907
37.25183,132053
37.25808,132235
37.26435,129735
37.27060,131954
37.27685,130472
37.28312,134181
37.28937,129224
37.29562,131899
37.30188,132211
37.30813,131451
37.31438,129491
37.32065,130109
37.32690,130864
37.33315,135167
37.33942,129099
37.34567,133349
37.35192,130484
37.35818,131982
37.36443,128309
37.37068,135626
37.37695,130381
37.38320,132805
37.38945,130782
37.39572,130436
37.40197,132968
37.40822,130195
37.41447,130307
37.42073,130691
37.42698,127890
37.43323,135035
37.43950,131052
37.44575,132505
37.45200,130423
37.45827,130831
37.46452,129281
37.47077,131682
37.47703,131313
37.48328,134672
37.48953,131886
