D:\MassHunter\GCMS\1\data\metastasis_lineages_3replicates_3runs_10302020\L_plate3_run2_10302020.D Sat Oct 31 07:16:48 2020
Start of data points
5.99347,229911
5.99972,242524
6.00597,242786
6.01223,238916
6.01848,252775
6.02473,265280
6.03100,257852
6.03725,249487
6.04350,264254
6.04975,264844
6.05602,263424
6.06227,246368
6.06852,253516
6.07478,283984
6.08103,301083
6.08728,299863
6.09355,262852
6.09980,270042
6.10605,468931
6.11232,943271
6.11857,1389853
6.12482,1290083
6.13108,846535
6.13733,490179
6.14358,353558
6.14985,312844
6.15610,346813
6.16235,534945
6.16862,939720
6.17487,1303662
6.18112,1268927
6.18738,904564
6.19363,566485
6.19988,386766
6.20615,312971
6.21240,265937
6.21865,232158
6.22492,233803
6.23117,243243
6.23742,231636
6.24368,228695
6.24993,200435
6.25618,190171
6.26243,177869
6.26870,175360
6.27495,179823
6.28120,197078
6.28747,203479
6.29372,199251
6.29997,187678
6.30623,210610
6.31248,329650
6.31873,595754
6.32500,1005821
6.33125,1633490
6.33750,3234088
6.34377,7159344
6.35002,1.25192E+07
6.35627,1.496209E+07
6.36253,1.045038E+07
6.36878,3706850
6.37503,853974
6.38130,306350
6.38755,242576
6.39380,232018
6.40007,234603
6.40632,273546
6.41257,379926
6.41883,565293
6.42508,782537
6.43133,963720
6.43760,1101774
6.44385,1096659
6.45010,833789
6.45637,720158
6.46262,1584733
6.46887,4458440
6.47513,9702190
6.48138,1.670711E+07
6.48763,2.40799E+07
6.49388,2.985216E+07
6.50015,3.570676E+07
6.50640,4.168573E+07
6.51265,4.577247E+07
6.51892,4.708942E+07
6.52517,4.712318E+07
6.53142,4.645557E+07
6.53768,3.820414E+07
6.54393,5329165
6.55018,895556
6.55645,814439
6.56270,853450
6.56895,865676
6.57522,1186099
6.58147,2050325
6.58772,2898707
6.59398,2646986
6.60023,1480946
6.60648,656245
6.61275,411390
6.61900,347663
6.62525,326231
6.63152,318213
6.63777,313823
6.64402,327111
6.65028,323502
6.65653,308458
6.66278,291169
6.66905,360621
6.67530,531345
6.68155,765336
6.68782,777313
6.69407,571668
6.70032,395023
6.70657,321510
6.71283,319248
6.71908,326646
6.72533,348315
6.73160,358857
6.73785,368202
6.74410,380445
6.75037,411504
6.75662,409548
6.76287,404187
6.76913,404399
6.77538,407556
6.78163,400085
6.78790,403062
6.79415,411973
6.80040,436374
6.80667,463909
6.81292,504003
6.81917,527146
6.82543,542088
6.83168,520945
6.83793,527812
6.84420,541803
6.85045,593505
6.85670,671968
6.86297,681351
6.86922,607183
6.87547,571987
6.88173,620040
6.88798,869547
6.89423,1145069
6.90050,1182933
6.90675,937834
6.91300,694649
6.91927,564729
6.92552,517485
6.93177,498682
6.93802,494554
6.94428,478986
6.95053,476528
6.95678,462619
6.96305,436667
6.96930,423862
6.97555,409436
6.98182,418149
6.98807,418518
6.99432,402320
7.00058,371212
7.00683,356256
7.01308,347266
7.01935,367568
7.02560,463043
7.03185,714117
7.03812,1345959
7.04437,2830811
7.05062,5447356
7.05688,7786418
7.06313,7355208
7.06938,4228040
7.07565,1609757
7.08190,540008
7.08815,283017
7.09442,226711
7.10067,212526
7.10692,191418
7.11318,183086
7.11943,168815
7.12568,167727
7.13195,165223
7.13820,194921
7.14445,266929
7.15070,402329
7.15697,540791
7.16322,530793
7.16947,377028
7.17573,227266
7.18198,166572
7.18823,151794
7.19450,142495
7.20075,138553
7.20700,153927
7.21327,156301
7.21952,154667
7.22577,154738
7.23203,142716
7.23828,156187
7.24453,182216
7.25080,213161
7.25705,293183
7.26330,505524
7.26957,791279
7.27582,897660
7.28207,722422
7.28833,456739
7.29458,268904
7.30083,191377
7.30710,180580
7.31335,173573
7.31960,170328
7.32587,153711
7.33212,151474
7.33837,147287
7.34463,143120
7.35088,144436
7.35713,141338
7.36340,130865
7.36965,126969
7.37590,121920
7.38215,133291
7.38842,143555
7.39467,158246
7.40092,166623
7.40718,160811
7.41343,161003
7.41968,208536
7.42595,306633
7.43220,411846
7.43845,483287
7.44472,491337
7.45097,416111
7.45722,300007
7.46348,202919
7.46973,172601
7.47598,166457
7.48225,169375
7.48850,187923
7.49475,212238
7.50102,258946
7.50727,319159
7.51352,348778
7.51978,304878
7.52603,220435
7.53228,160500
7.53855,141393
7.54480,145567
7.55105,203093
7.55732,634462
7.56357,2490907
7.56982,7574621
7.57608,1.570416E+07
7.58233,2.403845E+07
7.58858,2.856704E+07
7.59483,2.452004E+07
7.60110,1.244914E+07
7.60735,3989779
7.61360,1792292
7.61987,1181400
7.62612,910211
7.63237,741734
7.63863,534810
7.64488,369801
7.65113,282966
7.65740,247564
7.66365,225273
7.66990,238315
7.67617,289900
7.68242,389897
7.68867,421837
7.69493,379700
7.70118,286539
7.70743,225692
7.71370,237894
7.71995,337162
7.72620,433507
7.73247,444350
7.73872,379709
7.74497,307692
7.75123,247681
7.75748,210320
7.76373,180960
7.77000,168567
7.77625,169218
7.78250,174890
7.78877,171619
7.79502,171437
7.80127,170760
7.80752,164765
7.81378,173678
7.82003,185228
7.82628,223903
7.83255,291823
7.83880,339911
7.84505,337377
7.85132,296521
7.85757,302612
7.86382,356360
7.87008,417435
7.87633,416348
7.88258,342573
7.88885,270927
7.89510,227077
7.90135,204981
7.90762,201109
7.91387,224096
7.92012,228745
7.92638,235385
7.93263,220263
7.93888,214378
7.94515,232974
7.95140,294190
7.95765,387422
7.96392,449558
7.97017,424422
7.97642,359294
7.98268,333619
7.98893,393872
7.99518,599361
8.00145,964204
8.00770,1376268
8.01395,1946404
8.02022,2597867
8.02647,2872616
8.03272,2337273
8.03897,1501052
8.04523,1168099
8.05148,1334142
8.05773,1523773
8.06400,1330649
8.07025,855107
8.07650,494730
8.08277,392814
8.08902,519706
8.09527,688568
8.10153,774639
8.10778,803471
8.11403,951833
8.12030,1232034
8.12655,1322635
8.13280,997685
8.13907,571058
8.14532,349462
8.15157,296772
8.15783,267666
8.16408,235482
8.17033,206251
8.17660,184867
8.18285,172123
8.18910,173278
8.19537,168245
8.20162,169929
8.20787,161194
8.21413,168589
8.22038,177045
8.22663,218258
8.23290,305660
8.23915,423321
8.24540,474678
8.25165,400383
8.25792,309330
8.26417,242002
8.27042,225597
8.27668,223484
8.28293,243863
8.28918,263366
8.29545,276184
8.30170,256703
8.30795,212640
8.31422,162727
8.32047,142441
8.32672,128651
8.33298,134083
8.33923,139853
8.34548,143898
8.35175,151053
8.35800,149151
8.36425,153709
8.37052,155206
8.37677,152938
8.38302,144086
8.38928,142975
8.39553,170014
8.40178,256767
8.40805,438285
8.41430,622171
8.42055,609044
8.42682,447742
8.43307,296414
8.43932,261989
8.44558,271024
8.45183,257105
8.45808,224419
8.46433,193075
8.47060,183914
8.47685,173376
8.48310,170392
8.48937,174690
8.49562,171931
8.50187,179589
8.50813,201267
8.51438,203216
8.52063,187201
8.52690,166735
8.53315,149245
8.53940,140344
8.54567,133715
8.55192,142711
8.55817,176410
8.56443,267922
8.57068,460215
8.57693,720883
8.58320,1134246
8.58945,1698611
8.59570,2064171
8.60197,1942076
8.60822,1935103
8.61447,3282881
8.62073,7262882
8.62698,1.309512E+07
8.63323,1.649994E+07
8.63950,1.385697E+07
8.64575,6932656
8.65200,2100489
8.65827,541643
8.66452,271515
8.67077,240252
8.67703,249697
8.68328,258197
8.68953,259962
8.69578,255832
8.70205,250528
8.70830,254370
8.71455,273651
8.72082,279876
8.72707,269077
8.73332,228843
8.73958,223695
8.74583,236617
8.75208,251371
8.75835,237799
8.76460,192615
8.77085,155369
8.77712,146642
8.78337,145544
8.78962,148575
8.79588,142531
8.80213,131246
8.80838,129405
8.81465,135528
8.82090,147135
8.82715,214082
8.83342,497987
8.83967,1345506
8.84592,3288075
8.85218,6140889
8.85843,9131654
8.86468,1.026959E+07
8.87095,9359363
8.87720,7832639
8.88345,7368981
8.88972,7863353
8.89597,8872083
8.90222,9925271
8.90847,1.088824E+07
8.91473,1.202688E+07
8.92098,1.326214E+07
8.92723,1.427092E+07
8.93350,1.252226E+07
8.93975,2753962
8.94600,415196
8.95227,310126
8.95852,342521
8.96477,410620
8.97103,467478
8.97728,490508
8.98353,478254
8.98980,489887
8.99605,561272
9.00230,756851
9.00857,1006897
9.01482,1135666
9.02107,1023567
9.02733,729682
9.03358,532973
9.03983,646227
9.04610,1124895
9.05235,1578842
9.05860,1496392
9.06487,947567
9.07112,495048
9.07737,288867
9.08363,231899
9.08988,228612
9.09613,228853
9.10240,232608
9.10865,222669
9.11490,199494
9.12117,179707
9.12742,167018
9.13367,177598
9.13992,197206
9.14618,229585
9.15243,246526
9.15868,287143
9.16495,355822
9.17120,397066
9.17745,403644
9.18372,426058
9.18997,487372
9.19622,556593
9.20248,523012
9.20873,386344
9.21498,271727
9.22125,197209
9.22750,173235
9.23375,183991
9.24002,245991
9.24627,326323
9.25252,377126
9.25878,332465
9.26503,250424
9.27128,181343
9.27755,147206
9.28380,140392
9.29005,152234
9.29632,179027
9.30257,240877
9.30882,345272
9.31508,489013
9.32133,643261
9.32758,699067
9.33385,634682
9.34010,580303
9.34635,663133
9.35260,793659
9.35887,733953
9.36512,539388
9.37137,382917
9.37763,662524
9.38388,2275414
9.39013,6503827
9.39640,1.25992E+07
9.40265,1.604073E+07
9.40890,1.337153E+07
9.41517,7170284
9.42142,2323335
9.42767,837332
9.43393,1297582
9.44018,4074688
9.44643,1.103945E+07
9.45270,2.347215E+07
9.45895,3.687597E+07
9.46520,4.450052E+07
9.47147,4.263988E+07
9.47772,3.190456E+07
9.48397,1.85529E+07
9.49023,6302721
9.49648,1398531
9.50273,451486
9.50900,296734
9.51525,261160
9.52150,258878
9.52777,256863
9.53402,250652
9.54027,243393
9.54653,241048
9.55278,231296
9.55903,215730
9.56530,208269
9.57155,222443
9.57780,234937
9.58405,236022
9.59032,233149
9.59657,225518
9.60282,228166
9.60908,260698
9.61533,285957
9.62158,283966
9.62785,252266
9.63410,215943
9.64035,186036
9.64662,183669
9.65287,199621
9.65912,194459
9.66538,186323
9.67163,219517
9.67788,420022
9.68415,1410749
9.69040,4536243
9.69665,1.00857E+07
9.70292,1.440262E+07
9.70917,1.419195E+07
9.71542,8685004
9.72168,3489392
9.72793,1835697
9.73418,2502735
9.74045,3575667
9.74670,3484785
9.75295,2397094
9.75922,1104010
9.76547,454771
9.77172,264521
9.77798,217815
9.78423,197392
9.79048,181104
9.79673,163729
9.80300,154662
9.80925,157517
9.81550,162016
9.82177,166793
9.82802,163599
9.83427,180130
9.84053,207167
9.84678,264396
9.85303,470375
9.85930,1382921
9.86555,4049564
9.87180,8613169
9.87807,1.274999E+07
9.88432,1.26228E+07
9.89057,7881840
9.89683,3335395
9.90308,1928074
9.90933,2337697
9.91560,2650712
9.92185,2105395
9.92810,1093792
9.93437,477490
9.94062,263967
9.94687,220775
9.95313,261949
9.95938,382179
9.96563,662435
9.97190,1060081
9.97815,1395907
9.98440,1554932
9.99067,1549988
9.99692,1444606
10.00317,1131967
10.00943,750172
10.01568,470319
10.02193,346611
10.02818,282846
10.03445,248964
10.04070,233154
10.04695,231700
10.05322,235708
10.05947,211529
10.06572,188378
10.07198,164814
10.07823,164205
10.08448,176095
10.09075,207697
10.09700,224188
10.10325,236460
10.10952,226438
10.11577,207546
10.12202,190762
10.12828,172255
10.13453,160539
10.14078,155612
10.14705,153410
10.15330,156969
10.15955,156791
10.16582,156768
10.17207,162618
10.17832,180401
10.18458,202003
10.19083,222650
10.19708,213320
10.20335,187014
10.20960,179911
10.21585,201453
10.22212,307939
10.22837,529092
10.23462,847204
10.24087,1183088
10.24713,1240035
10.25338,989439
10.25963,656897
10.26590,431671
10.27215,319673
10.27840,262511
10.28467,268064
10.29092,324116
10.29717,388728
10.30343,379180
10.30968,304348
10.31593,247257
10.32220,237325
10.32845,265693
10.33470,340269
10.34097,402508
10.34722,383248
10.35347,292778
10.35973,232019
10.36598,210857
10.37223,201524
10.37850,189177
10.38475,172419
10.39100,165879
10.39727,162114
10.40352,145929
10.40977,135747
10.41603,146163
10.42228,159958
10.42853,175994
10.43480,184402
10.44105,184977
10.44730,194554
10.45355,199765
10.45982,196038
10.46607,198508
10.47232,239746
10.47858,373610
10.48483,590849
10.49108,741834
10.49735,671321
10.50360,467961
10.50985,284751
10.51612,196305
10.52237,172630
10.52862,191358
10.53488,248219
10.54113,303055
10.54738,316079
10.55365,284446
10.55990,241493
10.56615,223890
10.57242,242494
10.57867,272441
10.58492,287147
10.59118,278671
10.59743,300221
10.60368,595456
10.60995,1862066
10.61620,5036707
10.62245,9658741
10.62872,1.26597E+07
10.63497,1.087071E+07
10.64122,6026105
10.64748,2170174
10.65373,685364
10.65998,301037
10.66625,235530
10.67250,245291
10.67875,256912
10.68500,245511
10.69127,226307
10.69752,195127
10.70377,170521
10.71003,167097
10.71628,178644
10.72253,185266
10.72880,203708
10.73505,215703
10.74130,212416
10.74757,212440
10.75382,196722
10.76007,201382
10.76633,207351
10.77258,217703
10.77883,222749
10.78510,224386
10.79135,217584
10.79760,210674
10.80387,223592
10.81012,280439
10.81637,383179
10.82263,467155
10.82888,430764
10.83513,322775
10.84140,232636
10.84765,198837
10.85390,204418
10.86017,218501
10.86642,224070
10.87267,227780
10.87893,213766
10.88518,207200
10.89143,210618
10.89768,220348
10.90395,243580
10.91020,255237
10.91645,235316
10.92272,220264
10.92897,222834
10.93522,226959
10.94148,210438
10.94773,189426
10.95398,191270
10.96025,271268
10.96650,694767
10.97275,2105461
10.97902,5840899
10.98527,1.223335E+07
10.99152,1.827567E+07
10.99778,1.991071E+07
11.00403,1.553567E+07
11.01028,7319050
11.01655,2181168
11.02280,590772
11.02905,298253
11.03532,303886
11.04157,333339
11.04782,348882
11.05408,378082
11.06033,414610
11.06658,419218
11.07285,357014
11.07910,270412
11.08535,217977
11.09162,228997
11.09787,283217
11.10412,328651
11.11037,327980
11.11663,292266
11.12288,262542
11.12913,261781
11.13540,263222
11.14165,276771
11.14790,284229
11.15417,335179
11.16042,482766
11.16667,670482
11.17293,772180
11.17918,652576
11.18543,450023
11.19170,287611
11.19795,224550
11.20420,213749
11.21047,232462
11.21672,254967
11.22297,267108
11.22923,261035
11.23548,237332
11.24173,235447
11.24800,271181
11.25425,366726
11.26050,587374
11.26677,1096711
11.27302,1900902
11.27927,2524420
11.28553,2544841
11.29178,1949606
11.29803,1172343
11.30430,623276
11.31055,404141
11.31680,405036
11.32307,582500
11.32932,861705
11.33557,981571
11.34182,792446
11.34808,488429
11.35433,274088
11.36058,206076
11.36685,192628
11.37310,193830
11.37935,190773
11.38562,176537
11.39187,172381
11.39812,184046
11.40438,188659
11.41063,200931
11.41688,202080
11.42315,194787
11.42940,201746
11.43565,266194
11.44192,449536
11.44817,725435
11.45442,959032
11.46068,930672
11.46693,674896
11.47318,419713
11.47945,285744
11.48570,262969
11.49195,247208
11.49822,238443
11.50447,220220
11.51072,204737
11.51698,193231
11.52323,185164
11.52948,184769
11.53575,194455
11.54200,214992
11.54825,232399
11.55450,232868
11.56077,219729
11.56702,192544
11.57327,171744
11.57953,173392
11.58578,178857
11.59203,190967
11.59830,198621
11.60455,199033
11.61080,195915
11.61707,198244
11.62332,197589
11.62957,197976
11.63583,194063
11.64208,192337
11.64833,209458
11.65460,233213
11.66085,256943
11.66710,250244
11.67337,228564
11.67962,211219
11.68587,201286
11.69213,200722
11.69838,213013
11.70463,239972
11.71090,281147
11.71715,326027
11.72340,355711
11.72967,340072
11.73592,317421
11.74217,275136
11.74843,253658
11.75468,233224
11.76093,238885
11.76720,263349
11.77345,295433
11.77970,299215
11.78595,279928
11.79222,270303
11.79847,264804
11.80472,265276
11.81098,265747
11.81723,266528
11.82348,303505
11.82975,435428
11.83600,698070
11.84225,963660
11.84852,983880
11.85477,740096
11.86102,485269
11.86728,328761
11.87353,264490
11.87978,271786
11.88605,349050
11.89230,466935
11.89855,540756
11.90482,530999
11.91107,475125
11.91732,393887
11.92358,339322
11.92983,319583
11.93608,371916
11.94235,637587
11.94860,1386983
11.95485,2985637
11.96112,5342951
11.96737,7406890
11.97362,7827492
11.97988,5501258
11.98613,2434658
11.99238,929281
11.99863,577976
12.00490,572741
12.01115,568340
12.01740,499403
12.02367,433445
12.02992,429186
12.03617,479487
12.04243,631697
12.04868,880589
12.05493,1104292
12.06120,1176241
12.06745,995601
12.07370,703199
12.07997,488543
12.08622,433180
12.09247,456013
12.09873,479569
12.10498,467212
12.11123,407159
12.11750,337010
12.12375,290397
12.13000,270083
12.13627,267387
12.14252,253822
12.14877,243940
12.15503,226623
12.16128,225392
12.16753,228872
12.17380,240651
12.18005,258015
12.18630,291182
12.19257,345782
12.19882,429086
12.20507,538446
12.21133,695936
12.21758,828221
12.22383,867932
12.23008,803044
12.23635,709429
12.24260,680418
12.24885,833442
12.25512,1148486
12.26137,1639877
12.26762,2279742
12.27388,2617999
12.28013,2513714
12.28638,1886196
12.29265,1119834
12.29890,603875
12.30515,369195
12.31142,274958
12.31767,247140
12.32392,225491
12.33018,225475
12.33643,244920
12.34268,291047
12.34895,356277
12.35520,409192
12.36145,427424
12.36772,400490
12.37397,389003
12.38022,409131
12.38648,506011
12.39273,566424
12.39898,532670
12.40525,436574
12.41150,345168
12.41775,301398
12.42402,302598
12.43027,332970
12.43652,376814
12.44277,377849
12.44903,347859
12.45528,303261
12.46153,282685
12.46780,314736
12.47405,425560
12.48030,653870
12.48657,1011991
12.49282,1473533
12.49907,1678682
12.50533,1502775
12.51158,976185
12.51783,540872
12.52410,339260
12.53035,295349
12.53660,324869
12.54287,374070
12.54912,444287
12.55537,460512
12.56163,442052
12.56788,451828
12.57413,563697
12.58040,902042
12.58665,1517575
12.59290,2644070
12.59917,4542294
12.60542,7462844
12.61167,1.276249E+07
12.61793,2.10943E+07
12.62418,2.961355E+07
12.63043,3.326947E+07
12.63670,3.024353E+07
12.64295,2.158385E+07
12.64920,1.566277E+07
12.65547,1.742349E+07
12.66172,2.265226E+07
12.66797,2.749405E+07
12.67422,3.072046E+07
12.68048,2.947802E+07
12.68673,2.030761E+07
12.69298,7417387
12.69925,1747043
12.70550,663504
12.71175,620192
12.71802,815462
12.72427,1068426
12.73052,1157419
12.73678,1061379
12.74303,1008073
12.74928,958301
12.75555,850330
12.76180,701521
12.76805,594968
12.77432,517814
12.78057,447434
12.78682,430638
12.79308,431221
12.79933,411340
12.80558,400009
12.81185,376829
12.81810,366634
12.82435,375432
12.83062,402791
12.83687,431837
12.84312,444797
12.84938,441559
12.85563,445760
12.86188,427289
12.86815,407637
12.87440,407634
12.88065,431175
12.88690,551161
12.89317,820366
12.89942,1084276
12.90567,1208723
12.91193,1126831
12.91818,945261
12.92443,748128
12.93070,553010
12.93695,416823
12.94320,328720
12.94947,311075
12.95572,297120
12.96197,289477
12.96823,284648
12.97448,266803
12.98073,268561
12.98700,290905
12.99325,316072
12.99950,348605
13.00577,383251
13.01202,410184
13.01827,460604
13.02453,555130
13.03078,708886
13.03703,874220
13.04330,878342
13.04955,748343
13.05580,541624
13.06207,485854
13.06832,672042
13.07457,1192414
13.08083,2237381
13.08708,3319505
13.09333,3643429
13.09958,2948895
13.10585,1802212
13.11210,1005174
13.11835,626552
13.12462,458398
13.13087,385387
13.13712,379632
13.14338,399625
13.14963,394615
13.15588,377939
13.16215,366873
13.16840,348705
13.17465,332984
13.18092,312198
13.18717,286707
13.19342,269943
13.19968,256831
13.20593,257576
13.21218,262558
13.21845,274337
13.22470,302878
13.23095,342753
13.23722,395609
13.24347,407597
13.24972,393481
13.25598,367998
13.26223,372813
13.26848,376398
13.27475,380548
13.28100,384721
13.28725,450587
13.29352,607290
13.29977,913121
13.30602,1399872
13.31228,1791121
13.31853,1776733
13.32478,1292793
13.33103,730849
13.33730,430962
13.34355,354591
13.34980,357932
13.35607,373734
13.36232,358412
13.36857,333890
13.37483,315668
13.38108,290858
13.38733,281492
13.39360,262972
13.39985,262276
13.40610,262996
13.41237,281872
13.41862,298016
13.42487,323660
13.43113,369471
13.43738,414696
13.44363,438799
13.44990,427441
13.45615,382403
13.46240,339249
13.46867,303655
13.47492,290580
13.48117,290571
13.48743,298284
13.49368,307007
13.49993,318095
13.50620,352354
13.51245,400231
13.51870,492087
13.52497,547410
13.53122,538822
13.53747,492181
13.54372,505232
13.54998,624563
13.55623,790647
13.56248,837435
13.56875,781017
13.57500,645929
13.58125,579162
13.58752,650705
13.59377,831402
13.60002,1102270
13.60628,1336164
13.61253,1385318
13.61878,1167368
13.62505,936130
13.63130,732449
13.63755,585614
13.64382,488261
13.65007,442320
13.65632,433060
13.66258,413659
13.66883,393970
13.67508,379252
13.68135,382163
13.68760,416893
13.69385,438635
13.70012,447902
13.70637,435689
13.71262,423205
13.71888,415053
13.72513,406043
13.73138,399117
13.73765,409051
13.74390,420908
13.75015,487873
13.75640,666370
13.76267,1025554
13.76892,1335915
13.77517,1334078
13.78143,1019206
13.78768,714866
13.79393,675775
13.80020,1096718
13.80645,2277761
13.81270,4412060
13.81897,7704396
13.82522,1.211203E+07
13.83147,1.843514E+07
13.83773,2.549126E+07
13.84398,2.883895E+07
13.85023,2.436938E+07
13.85650,1.154599E+07
13.86275,2948078
13.86900,728248
13.87527,429287
13.88152,518706
13.88777,846213
13.89403,1536513
13.90028,2858725
13.90653,5274090
13.91280,8410953
13.91905,1.029436E+07
13.92530,9216367
13.93157,5333346
13.93782,2058661
13.94407,675966
13.95033,319874
13.95658,267939
13.96283,262546
13.96910,260718
13.97535,261379
13.98160,261434
13.98785,270344
13.99412,298127
14.00037,339318
14.00662,413047
14.01288,473499
14.01913,468747
14.02538,389209
14.03165,302265
14.03790,247584
14.04415,228202
14.05042,235531
14.05667,272325
14.06292,316339
14.06918,371748
14.07543,402073
14.08168,404325
14.08795,378986
14.09420,368680
14.10045,349992
14.10672,300985
14.11297,255501
14.11922,242623
14.12548,242610
14.13173,246739
14.13798,243316
14.14425,239393
14.15050,238367
14.15675,241028
14.16302,241375
14.16927,239526
14.17552,218016
14.18178,207806
14.18803,202033
14.19428,195671
14.20053,204931
14.20680,217449
14.21305,250513
14.21930,308198
14.22557,381937
14.23182,444954
14.23807,439142
14.24433,377639
14.25058,303647
14.25683,269868
14.26310,292332
14.26935,355972
14.27560,475963
14.28187,558951
14.28812,520962
14.29437,451275
14.30063,432744
14.30688,497242
14.31313,591407
14.31940,667778
14.32565,668849
14.33190,630017
14.33817,551939
14.34442,448770
14.35067,390574
14.35693,362570
14.36318,378342
14.36943,428065
14.37570,428690
14.38195,397227
14.38820,375711
14.39447,421675
14.40072,614579
14.40697,1130942
14.41323,2414951
14.41948,4495360
14.42573,6494142
14.43198,6446861
14.43825,4659796
14.44450,2574485
14.45075,1534511
14.45702,1243300
14.46327,1281658
14.46952,1365928
14.47578,1455601
14.48203,1498257
14.48828,1368647
14.49455,1016246
14.50080,671013
14.50705,451593
14.51332,348807
14.51957,345084
14.52582,381469
14.53208,410733
14.53833,413467
14.54458,384827
14.55085,357685
14.55710,336444
14.56335,329316
14.56962,320189
14.57587,318196
14.58212,317039
14.58838,295828
14.59463,270082
14.60088,262037
14.60715,279228
14.61340,311404
14.61965,336761
14.62592,383742
14.63217,442425
14.63842,561354
14.64467,688189
14.65093,741519
14.65718,713078
14.66343,604489
14.66970,470193
14.67595,405847
14.68220,382514
14.68847,398880
14.69472,458125
14.70097,554741
14.70723,628198
14.71348,658542
14.71973,735440
14.72600,1016494
14.73225,1490806
14.73850,2217958
14.74477,2713824
14.75102,2667431
14.75727,2341617
14.76353,2093286
14.76978,1708765
14.77603,1136621
14.78230,632412
14.78855,408538
14.79480,396006
14.80107,493782
14.80732,676312
14.81357,814058
14.81983,795023
14.82608,608145
14.83233,410274
14.83860,324923
14.84485,337571
14.85110,376473
14.85737,402836
14.86362,409700
14.86987,414393
14.87612,409603
14.88238,368777
14.88863,348193
14.89488,326668
14.90115,352014
14.90740,441518
14.91365,663772
14.91992,888678
14.92617,985083
14.93242,863355
14.93868,661285
14.94493,478228
14.95118,396499
14.95745,386746
14.96370,494612
14.96995,744870
14.97622,1154751
14.98247,1434172
14.98872,1420071
14.99498,1024319
15.00123,655050
15.00748,433110
15.01375,326324
15.02000,290763
15.02625,276868
15.03252,263905
15.03877,271402
15.04502,309791
15.05128,334082
15.05753,362251
15.06378,378021
15.07005,370510
15.07630,348803
15.08255,342590
15.08880,356799
15.09507,396098
15.10132,457219
15.10757,498855
15.11383,545983
15.12008,635246
15.12633,773798
15.13260,915490
15.13885,1026873
15.14510,1113438
15.15137,1148127
15.15762,1203667
15.16387,1676667
15.17013,2714873
15.17638,3518586
15.18263,3604597
15.18890,2537064
15.19515,1436100
15.20140,822951
15.20767,583676
15.21392,445209
15.22017,331483
15.22643,261930
15.23268,243045
15.23893,252458
15.24520,284695
15.25145,341165
15.25770,410797
15.26397,425326
15.27022,388221
15.27647,346824
15.28273,298353
15.28898,267977
15.29523,259524
15.30150,266871
15.30775,296824
15.31400,351073
15.32025,453751
15.32652,546965
15.33277,567144
15.33902,478045
15.34528,371607
15.35153,329103
15.35778,355121
15.36405,399293
15.37030,408201
15.37655,374266
15.38282,338243
15.38907,302113
15.39532,286236
15.40158,269901
15.40783,258699
15.41408,258101
15.42035,274892
15.42660,317682
15.43285,374947
15.43912,429519
15.44537,449413
15.45162,475658
15.45788,524465
15.46413,544691
15.47038,511545
15.47665,469289
15.48290,383181
15.48915,309328
15.49542,298292
15.50167,318290
15.50792,404397
15.51418,627093
15.52043,1282428
15.52668,2691832
15.53293,4631509
15.53920,6698126
15.54545,9460756
15.55170,1.279497E+07
15.55797,1.66885E+07
15.56422,1.574361E+07
15.57047,9565687
15.57673,3472305
15.58298,1117257
15.58923,582061
15.59550,480788
15.60175,448011
15.60800,455538
15.61427,468280
15.62052,459849
15.62677,462660
15.63303,475429
15.63928,466958
15.64553,423885
15.65180,370364
15.65805,323780
15.66430,318405
15.67057,329927
15.67682,362242
15.68307,418890
15.68933,466401
15.69558,559183
15.70183,686793
15.70810,773459
15.71435,666164
15.72060,479501
15.72687,361108
15.73312,323773
15.73937,321575
15.74562,329610
15.75188,326674
15.75813,313188
15.76438,279414
15.77065,248603
15.77690,228916
15.78315,228467
15.78942,231772
15.79567,258946
15.80192,292563
15.80818,303715
15.81443,287908
15.82068,279195
15.82695,267942
15.83320,278527
15.83945,314729
15.84572,362793
15.85197,387237
15.85822,367617
15.86448,341425
15.87073,339813
15.87698,380164
15.88325,400350
15.88950,369628
15.89575,318467
15.90202,271345
15.90827,249733
15.91452,232527
15.92078,235958
15.92703,238445
15.93328,236110
15.93955,230568
15.94580,231826
15.95205,238759
15.95832,276001
15.96457,329076
15.97082,373763
15.97707,344872
15.98333,286618
15.98958,241774
15.99583,213265
16.00210,229133
16.00835,262928
16.01460,334576
16.02087,451703
16.02712,572263
16.03337,693013
16.03963,873668
16.04588,1176311
16.05213,1588708
16.05840,1665889
16.06465,1371426
16.07090,928249
16.07717,792843
16.08342,1015912
16.08967,1334696
16.09593,1522099
16.10218,1439856
16.10843,1498274
16.11470,2231832
16.12095,4047318
16.12720,6211404
16.13347,6987559
16.13972,5328377
16.14597,2965915
16.15223,1287136
16.15848,695383
16.16473,591652
16.17100,571247
16.17725,503766
16.18350,440826
16.18975,459591
16.19602,544765
16.20227,593561
16.20852,549727
16.21478,443392
16.22103,431378
16.22728,640881
16.23355,1120243
16.23980,1545099
16.24605,1555524
16.25232,1141689
16.25857,687355
16.26482,425994
16.27108,322143
16.27733,295618
16.28358,285051
16.28985,308474
16.29610,374844
16.30235,536914
16.30862,749279
16.31487,818003
16.32112,693867
16.32738,520924
16.33363,399944
16.33988,360639
16.34615,408811
16.35240,490199
16.35865,532338
16.36492,493035
16.37117,387167
16.37742,310352
16.38368,257189
16.38993,232217
16.39618,231706
16.40243,238202
16.40870,250599
16.41495,253969
16.42120,265932
16.42747,294463
16.43372,440840
16.43997,782317
16.44623,1305974
16.45248,1702730
16.45873,1608197
16.46500,1264150
16.47125,966160
16.47750,771914
16.48377,625479
16.49002,506117
16.49627,425788
16.50253,395836
16.50878,436088
16.51503,517579
16.52130,681988
16.52755,784399
16.53380,776964
16.54007,669666
16.54632,569699
16.55257,510947
16.55883,460803
16.56508,417939
16.57133,396319
16.57760,381693
16.58385,385769
16.59010,385653
16.59637,388713
16.60262,393471
16.60887,404841
16.61513,440911
16.62138,465316
16.62763,497884
16.63388,518927
16.64015,566347
16.64640,587473
16.65265,612442
16.65892,582642
16.66517,519367
16.67142,453039
16.67768,442374
16.68393,446981
16.69018,466578
16.69645,440577
16.70270,416005
16.70895,378545
16.71522,358893
16.72147,340481
16.72772,344644
16.73398,370486
16.74023,419736
16.74648,531813
16.75275,746468
16.75900,1188681
16.76525,2168796
16.77152,4196199
16.77777,7477567
16.78402,1.071673E+07
16.79028,1.15639E+07
16.79653,9502903
16.80278,7109459
16.80905,5565138
16.81530,5610594
16.82155,6185860
16.82782,7960216
16.83407,1.087217E+07
16.84032,1.3789E+07
16.84657,1.515941E+07
16.85283,1.404045E+07
16.85908,1.02149E+07
16.86533,6922440
16.87160,4970513
16.87785,4975733
16.88410,6138351
16.89037,7817774
16.89662,9096641
16.90287,8435037
16.90913,6807151
16.91538,4705753
16.92163,3509734
16.92790,3087411
16.93415,3354789
16.94040,3720243
16.94667,3821239
16.95292,3832667
16.95917,3979532
16.96543,3837865
16.97168,3366014
16.97793,2507437
16.98420,1724247
16.99045,1384747
16.99670,1331308
17.00297,1676080
17.00922,2926509
17.01547,6162963
17.02173,1.228236E+07
17.02798,2.014843E+07
17.03423,2.757261E+07
17.04050,3.32008E+07
17.04675,3.920198E+07
17.05300,4.613155E+07
17.05925,5.103094E+07
17.06552,5.240298E+07
17.07177,5.102618E+07
17.07802,4.748561E+07
17.08428,4.301762E+07
17.09053,3.980502E+07
17.09678,3.782628E+07
17.10305,3.616465E+07
17.10930,3.649113E+07
17.11555,4.832556E+07
17.12182,2.070462E+07
17.12807,1.387156E+07
17.13432,1.385311E+07
17.14058,1.195683E+07
17.14683,1.011479E+07
17.15308,1.127974E+07
17.15935,1.873813E+07
17.16560,3.080077E+07
17.17185,4.29388E+07
17.17812,4.956245E+07
17.18437,4.993166E+07
17.19062,3.967942E+07
17.19688,1.637639E+07
17.20313,4577789
17.20938,3597916
17.21565,4527491
17.22190,5716628
17.22815,7365587
17.23442,1.03155E+07
17.24067,1.747311E+07
17.24692,3.098303E+07
17.25318,4.397034E+07
17.25943,5.124364E+07
17.26568,5.304943E+07
17.27195,5.070553E+07
17.27820,3.349814E+07
17.28445,1.170073E+07
17.29070,8643081
17.29697,1.307483E+07
17.30322,1.738946E+07
17.30947,1.702759E+07
17.31573,1.196796E+07
17.32198,5942973
17.32823,2543854
17.33450,1398319
17.34075,1117136
17.34700,1020353
17.35327,952330
17.35952,918604
17.36577,902978
17.37203,892691
17.37828,926376
17.38453,972455
17.39080,1000612
17.39705,1074146
17.40330,1250369
17.40957,1494247
17.41582,1799604
17.42207,1936112
17.42833,1892370
17.43458,1720285
17.44083,1920692
17.44710,2824783
17.45335,4481936
17.45960,5873434
17.46587,5983502
17.47212,4361238
17.47837,2607599
17.48463,1483589
17.49088,1127065
17.49713,1063706
17.50338,1038250
17.50965,1104967
17.51590,1266584
17.52215,1381786
17.52842,1282575
17.53467,1031561
17.54092,865601
17.54718,801458
17.55343,914487
17.55968,1306810
17.56595,2325159
17.57220,4920465
17.57845,8892063
17.58472,1.234162E+07
17.59097,1.1705E+07
17.59722,7749390
17.60348,3783070
17.60973,1709677
17.61598,1185019
17.62225,1237362
17.62850,1306327
17.63475,1234550
17.64102,1012759
17.64727,805741
17.65352,687843
17.65978,630929
17.66603,607866
17.67228,586090
17.67855,589617
17.68480,614442
17.69105,637352
17.69732,677651
17.70357,675042
17.70982,667478
17.71608,618727
17.72233,563388
17.72858,536408
17.73483,559526
17.74110,631577
17.74735,701744
17.75360,707009
17.75987,713646
17.76612,761541
17.77237,912565
17.77863,1229526
17.78488,1629596
17.79113,2151745
17.79740,3288843
17.80365,5244193
17.80990,7778942
17.81617,9309391
17.82242,8479195
17.82867,5654475
17.83493,3133755
17.84118,1826595
17.84743,1354004
17.85370,1212260
17.85995,1748156
17.86620,3591252
17.87247,7478564
17.87872,1.228557E+07
17.88497,1.378237E+07
17.89123,1.049875E+07
17.89748,5222706
17.90373,2091514
17.91000,952343
17.91625,664343
17.92250,600977
17.92877,572749
17.93502,579597
17.94127,615383
17.94752,658093
17.95378,679966
17.96003,659529
17.96628,640702
17.97255,597682
17.97880,592606
17.98505,619126
17.99132,681593
17.99757,832954
18.00382,1003792
18.01008,1122760
18.01633,1133398
18.02258,966280
18.02885,802501
18.03510,703647
18.04135,674825
18.04762,653966
18.05387,608004
18.06012,523681
18.06638,465690
18.07263,433947
18.07888,440930
18.08515,497250
18.09140,574672
18.09765,639086
18.10392,648012
18.11017,624188
18.11642,611158
18.12268,741458
18.12893,1243437
18.13518,2508360
18.14145,4396354
18.14770,5858895
18.15395,5762785
18.16022,3706760
18.16647,1755984
18.17272,865624
18.17897,564791
18.18523,467577
18.19148,427656
18.19773,410124
18.20400,420492
18.21025,459454
18.21650,542395
18.22277,594387
18.22902,596134
18.23527,553524
18.24153,490086
18.24778,457522
18.25403,443029
18.26030,433894
18.26655,473130
18.27280,560397
18.27907,683919
18.28532,923272
18.29157,1404428
18.29783,2074621
18.30408,2627683
18.31033,2482308
18.31660,1857427
18.32285,1107369
18.32910,667382
18.33537,461950
18.34162,381489
18.34787,364005
18.35413,377950
18.36038,395401
18.36663,409154
18.37290,407225
18.37915,423029
18.38540,494822
18.39165,549700
18.39792,561595
18.40417,526136
18.41042,493282
18.41668,454619
18.42293,437553
18.42918,413873
18.43545,387834
18.44170,375746
18.44795,355856
18.45422,338596
18.46047,343084
18.46672,349226
18.47298,356951
18.47923,355085
18.48548,343359
18.49175,338493
18.49800,337408
18.50425,354293
18.51052,363036
18.51677,367540
18.52302,369619
18.52928,373760
18.53553,389620
18.54178,409220
18.54805,444055
18.55430,477997
18.56055,500240
18.56682,457994
18.57307,412866
18.57932,364601
18.58558,333085
18.59183,330786
18.59808,340610
18.60435,368803
18.61060,404228
18.61685,436866
18.62310,433423
18.62937,405248
18.63562,376575
18.64187,371492
18.64813,369313
18.65438,367292
18.66063,365001
18.66690,385366
18.67315,399559
18.67940,384336
18.68567,350108
18.69192,327491
18.69817,330182
18.70443,367352
18.71068,421198
18.71693,455063
18.72320,457641
18.72945,409939
18.73570,366464
18.74197,359430
18.74822,360306
18.75447,353119
18.76073,325967
18.76698,301233
18.77323,289143
18.77950,289901
18.78575,282904
18.79200,287645
18.79827,298284
18.80452,309026
18.81077,323481
18.81703,329701
18.82328,324825
18.82953,334915
18.83578,352392
18.84205,369168
18.84830,367725
18.85455,359507
18.86082,381033
18.86707,478038
18.87332,830129
18.87958,1835826
18.88583,4280117
18.89208,8392834
18.89835,1.223868E+07
18.90460,1.281765E+07
18.91085,9170492
18.91712,4772358
18.92337,1973361
18.92962,786452
18.93588,502677
18.94213,496108
18.94838,471861
18.95465,432689
18.96090,361810
18.96715,312153
18.97342,288156
18.97967,272675
18.98592,276190
18.99218,283309
18.99843,300353
19.00468,326992
19.01095,350388
19.01720,344031
19.02345,321762
19.02972,309465
19.03597,312397
19.04222,322118
19.04847,350374
19.05473,356190
19.06098,340318
19.06723,310576
19.07350,295501
19.07975,300782
19.08600,320231
19.09227,342712
19.09852,362471
19.10477,374229
19.11103,373955
19.11728,373092
19.12353,384886
19.12980,388708
19.13605,381890
19.14230,368836
19.14857,351041
19.15482,331229
19.16107,316344
19.16733,300350
19.17358,279599
19.17983,277228
19.18610,284403
19.19235,296207
19.19860,295758
19.20487,293374
19.21112,288808
19.21737,284935
19.22363,276086
19.22988,266784
19.23613,257586
19.24240,257830
19.24865,254666
19.25490,243741
19.26117,241744
19.26742,238636
19.27367,244524
19.27992,250101
19.28618,260098
19.29243,275668
19.29868,287405
19.30495,269123
19.31120,260505
19.31745,248865
19.32372,236105
19.32997,239280
19.33622,255001
19.34248,274954
19.34873,302706
19.35498,339195
19.36125,347694
19.36750,320778
19.37375,294942
19.38002,293257
19.38627,289935
19.39252,316265
19.39878,339169
19.40503,360039
19.41128,345400
19.41755,320598
19.42380,286174
19.43005,271178
19.43632,260729
19.44257,272203
19.44882,281583
19.45508,286365
19.46133,291247
19.46758,278432
19.47385,273404
19.48010,274478
19.48635,277550
19.49260,286477
19.49887,297261
19.50512,307640
19.51137,317064
19.51763,343731
19.52388,335167
19.53013,323378
19.53640,304034
19.54265,298486
19.54890,314685
19.55517,324531
19.56142,332730
19.56767,317119
19.57393,299045
19.58018,277487
19.58643,261897
19.59270,259065
19.59895,265032
19.60520,254985
19.61147,244841
19.61772,233350
19.62397,234512
19.63023,238175
19.63648,235297
19.64273,246043
19.64900,250180
19.65525,253045
19.66150,274167
19.66777,307447
19.67402,354656
19.68027,400109
19.68653,404414
19.69278,393948
19.69903,367910
19.70528,381590
19.71155,398342
19.71780,407244
19.72405,378672
19.73032,335336
19.73657,313439
19.74282,298044
19.74908,290719
19.75533,273808
19.76158,267864
19.76785,265933
19.77410,266244
19.78035,266999
19.78662,263759
19.79287,273084
19.79912,295222
19.80538,303369
19.81163,295193
19.81788,268805
19.82415,252380
19.83040,235988
19.83665,230507
19.84292,232641
19.84917,242692
19.85542,263010
19.86168,276619
19.86793,294065
19.87418,283791
19.88045,277079
19.88670,278065
19.89295,310839
19.89922,402426
19.90547,693858
19.91172,1580854
19.91798,3340452
19.92423,5721526
19.93048,7017834
19.93673,6013060
19.94300,3376762
19.94925,1400313
19.95550,579675
19.96177,401471
19.96802,450405
19.97427,554154
19.98053,676126
19.98678,693659
19.99303,613658
19.99930,492578
20.00555,387158
20.01180,314409
20.01807,287904
20.02432,271467
20.03057,263649
20.03683,252294
20.04308,252161
20.04933,264735
20.05560,288473
20.06185,288248
20.06810,268263
20.07437,247439
20.08062,236531
20.08687,239188
20.09313,239285
20.09938,249556
20.10563,243939
20.11190,244999
20.11815,235203
20.12440,226213
20.13067,230379
20.13692,231704
20.14317,236556
20.14942,243892
20.15568,248202
20.16193,252863
20.16818,247336
20.17445,253559
20.18070,246832
20.18695,248431
20.19322,262520
20.19947,281976
20.20572,302925
20.21198,333347
20.21823,361890
20.22448,406645
20.23075,435128
20.23700,439684
20.24325,400541
20.24952,349996
20.25577,298032
20.26202,272314
20.26828,257360
20.27453,250503
20.28078,260929
20.28705,280657
20.29330,307438
20.29955,375253
20.30582,443734
20.31207,460833
20.31832,398140
20.32458,334013
20.33083,293308
20.33708,295670
20.34335,313255
20.34960,318216
20.35585,328558
20.36210,302097
20.36837,280884
20.37462,258751
20.38087,259687
20.38713,256094
20.39338,246822
20.39963,241087
20.40590,239288
20.41215,241557
20.41840,252998
20.42467,285711
20.43092,355770
20.43717,482014
20.44343,620279
20.44968,645340
20.45593,586212
20.46220,444761
20.46845,352013
20.47470,323887
20.48097,316937
20.48722,336361
20.49347,350288
20.49973,323352
20.50598,298747
20.51223,285326
20.51850,269459
20.52475,270634
20.53100,254944
20.53727,254900
20.54352,271331
20.54977,303011
20.55603,328140
20.56228,328525
20.56853,314740
20.57480,299123
20.58105,308749
20.58730,323577
20.59355,361196
20.59982,367109
20.60607,351863
20.61232,316169
20.61858,289258
20.62483,267796
20.63108,251712
20.63735,249570
20.64360,261449
20.64985,271236
20.65612,294771
20.66237,302427
20.66862,297070
20.67488,281123
20.68113,273206
20.68738,253993
20.69365,247857
20.69990,242325
20.70615,258993
20.71242,299707
20.71867,367203
20.72492,452572
20.73118,497844
20.73743,482107
20.74368,432155
20.74995,382818
20.75620,346801
20.76245,339824
20.76872,373476
20.77497,405829
20.78122,385636
20.78748,362243
20.79373,338839
20.79998,321677
20.80623,314560
20.81250,307044
20.81875,299764
20.82500,299869
20.83127,316019
20.83752,326565
20.84377,338929
20.85003,326468
20.85628,320015
20.86253,305702
20.86880,301373
20.87505,294560
20.88130,301407
20.88757,329742
20.89382,345000
20.90007,346888
20.90633,339161
20.91258,337355
20.91883,329281
20.92510,313463
20.93135,316713
20.93760,354461
20.94387,422650
20.95012,480255
20.95637,478999
20.96263,447408
20.96888,419575
20.97513,421536
20.98140,397488
20.98765,364982
20.99390,334622
21.00017,382236
21.00642,515345
21.01267,678442
21.01893,771452
21.02518,685146
21.03143,543332
21.03768,416525
21.04395,348229
21.05020,309157
21.05645,286473
21.06272,275577
21.06897,262827
21.07522,266926
21.08148,273503
21.08773,274643
21.09398,277081
21.10025,275668
21.10650,292696
21.11275,310304
21.11902,337908
21.12527,343135
21.13152,326744
21.13778,298694
21.14403,286259
21.15028,277652
21.15655,282369
21.16280,282548
21.16905,300783
21.17532,310581
21.18157,309015
21.18782,301925
21.19408,297009
21.20033,290551
21.20658,312352
21.21285,337130
21.21910,360187
21.22535,356872
21.23162,347464
21.23787,349391
21.24412,376488
21.25037,386277
21.25663,363835
21.26288,332166
21.26913,305834
21.27540,296100
21.28165,320717
21.28790,380138
21.29417,461799
21.30042,544009
21.30667,621392
21.31293,575795
21.31918,493424
21.32543,416936
21.33170,398048
21.33795,383384
21.34420,371878
21.35047,418331
21.35672,631111
21.36297,1014436
21.36923,1291369
21.37548,1235906
21.38173,951610
21.38800,614977
21.39425,416498
21.40050,338439
21.40677,321501
21.41302,328115
21.41927,360420
21.42553,397423
21.43178,401849
21.43803,386536
21.44430,359673
21.45055,343132
21.45680,352802
21.46307,373610
21.46932,375318
21.47557,365476
21.48182,341311
21.48808,343023
21.49433,358735
21.50058,401883
21.50685,401536
21.51310,385676
21.51935,331205
21.52562,280882
21.53187,253143
21.53812,241656
21.54438,245308
21.55063,263159
21.55688,275523
21.56315,300940
21.56940,329491
21.57565,345119
21.58192,365042
21.58817,383741
21.59442,440443
21.60068,479578
21.60693,459548
21.61318,391396
21.61945,321452
21.62570,285497
21.63195,269914
21.63822,271606
21.64447,261289
21.65072,251233
21.65698,236425
21.66323,223719
21.66948,224668
21.67575,236433
21.68200,242546
21.68825,246632
21.69450,254141
21.70077,260653
21.70702,248950
21.71327,245069
21.71953,225099
21.72578,232613
21.73203,236377
21.73830,241434
21.74455,241288
21.75080,231740
21.75707,235398
21.76332,251625
21.76957,259071
21.77583,282079
21.78208,324157
21.78833,362743
21.79460,387282
21.80085,377149
21.80710,337762
21.81337,307340
21.81962,269745
21.82587,263191
21.83213,256954
21.83838,256825
21.84463,264285
21.85090,283432
21.85715,303012
21.86340,348562
21.86967,389929
21.87592,384893
21.88217,357255
21.88843,308136
21.89468,276310
21.90093,290858
21.90718,329037
21.91345,374848
21.91970,374814
21.92595,343149
21.93222,306918
21.93847,284794
21.94472,277526
21.95098,277167
21.95723,259479
21.96348,237148
21.96975,231934
21.97600,238787
21.98225,243361
21.98852,257567
21.99477,258321
22.00102,267982
22.00728,283109
22.01353,296506
22.01978,301446
22.02605,288217
22.03230,280300
22.03855,267730
22.04482,281109
22.05107,313474
22.05732,378481
22.06358,417266
22.06983,442947
22.07608,464819
22.08235,442333
22.08860,405864
22.09485,355826
22.10112,326353
22.10737,310484
22.11362,312035
22.11988,312041
22.12613,318385
22.13238,322132
22.13863,325453
22.14490,287379
22.15115,277314
22.15740,267855
22.16367,269982
22.16992,267405
22.17617,262714
22.18243,264643
22.18868,251981
22.19493,262199
22.20120,252745
22.20745,248866
22.21370,243431
22.21997,248800
22.22622,264524
22.23247,289070
22.23873,328532
22.24498,350073
22.25123,365589
22.25750,380037
22.26375,376806
22.27000,357703
22.27627,345690
22.28252,346681
22.28877,352276
22.29503,352407
22.30128,344412
22.30753,332911
22.31380,305121
22.32005,288801
22.32630,289876
22.33257,295108
22.33882,298969
22.34507,335395
22.35132,474358
22.35758,849755
22.36383,1454293
22.37008,1943758
22.37635,1816632
22.38260,1308379
22.38885,814218
22.39512,508438
22.40137,373969
22.40762,325251
22.41388,299630
22.42013,287333
22.42638,309653
22.43265,322238
22.43890,351280
22.44515,354439
22.45142,394595
22.45767,466029
22.46392,562406
22.47018,613837
22.47643,565824
22.48268,466214
22.48895,383704
22.49520,339539
22.50145,314512
22.50772,298597
22.51397,290419
22.52022,279249
22.52648,287730
22.53273,349571
22.53898,511572
22.54525,754856
22.55150,1021961
22.55775,966556
22.56400,774061
22.57027,549675
22.57652,421410
22.58277,359378
22.58903,344805
22.59528,339417
22.60153,331132
22.60780,306817
22.61405,298269
22.62030,302375
22.62657,310595
22.63282,339024
22.63907,398240
22.64533,518374
22.65158,699357
22.65783,819436
22.66410,801227
22.67035,689978
22.67660,556807
22.68287,463965
22.68912,404547
22.69537,358468
22.70163,320531
22.70788,292978
22.71413,277859
22.72040,272837
22.72665,274244
22.73290,277512
22.73917,283831
22.74542,293797
22.75167,296529
22.75793,300039
22.76418,307085
22.77043,345289
22.77670,434330
22.78295,833053
22.78920,2182922
22.79545,5489155
22.80172,1.134594E+07
22.80797,1.95533E+07
22.81422,2.485689E+07
22.82048,2.388543E+07
22.82673,1.511784E+07
22.83298,6173363
22.83925,2030400
22.84550,826235
22.85175,568791
22.85802,521639
22.86427,500879
22.87052,470504
22.87678,452933
22.88303,458504
22.88928,486618
22.89555,483609
22.90180,454722
22.90805,409162
22.91432,372545
22.92057,345001
22.92682,330864
22.93308,313178
22.93933,315274
22.94558,320298
22.95185,325313
22.95810,354988
22.96435,381835
22.97062,425988
22.97687,477965
22.98312,534700
22.98938,577051
22.99563,544700
23.00188,435769
23.00813,363751
23.01440,315504
23.02065,287781
23.02690,283493
23.03317,283394
23.03942,285451
23.04567,280787
23.05193,279755
23.05818,288730
23.06443,314992
23.07070,375192
23.07695,439368
23.08320,466795
23.08947,466270
23.09572,424890
23.10197,383338
23.10823,351980
23.11448,325105
23.12073,307793
23.12700,285263
23.13325,274938
23.13950,265256
23.14577,258143
23.15202,258004
23.15827,260540
23.16453,259417
23.17078,254709
23.17703,255730
23.18330,260158
23.18955,263414
23.19580,267802
23.20207,271877
23.20832,276461
23.21457,280643
23.22082,268009
23.22708,258089
23.23333,259784
23.23958,260538
23.24585,269701
23.25210,280997
23.25835,282390
23.26462,280811
23.27087,267641
23.27712,265445
23.28338,267923
23.28963,290295
23.29588,330703
23.30215,412691
23.30840,537637
23.31465,689071
23.32092,739159
23.32717,663964
23.33342,522396
23.33968,415135
23.34593,348590
23.35218,305839
23.35845,287943
23.36470,280154
23.37095,277260
23.37722,278033
23.38347,277758
23.38972,279189
23.39598,289544
23.40223,275956
23.40848,273489
23.41475,265508
23.42100,268410
23.42725,269001
23.43352,276408
23.43977,293414
23.44602,320112
23.45227,342312
23.45853,342660
23.46478,353971
23.47103,373386
23.47730,426869
23.48355,490777
23.48980,539159
23.49607,535601
23.50232,525080
23.50857,565478
23.51483,656498
23.52108,756485
23.52733,788961
23.53360,700295
23.53985,532054
23.54610,438780
23.55237,463601
23.55862,764263
23.56487,1659378
23.57113,3658851
23.57738,6796123
23.58363,8929311
23.58990,9673266
23.59615,7242867
23.60240,4514879
23.60867,2200531
23.61492,1085651
23.62117,659381
23.62743,493874
23.63368,430174
23.63993,405079
23.64620,391554
23.65245,373611
23.65870,351329
23.66495,358831
23.67122,380640
23.67747,432215
23.68372,493607
23.68998,532286
23.69623,550283
23.70248,580600
23.70875,605597
23.71500,599755
23.72125,558246
23.72752,525482
23.73377,497014
23.74002,461737
23.74628,403196
23.75253,371283
23.75878,367991
23.76505,358093
23.77130,349269
23.77755,345786
23.78382,349271
23.79007,350468
23.79632,350458
23.80258,349556
23.80883,365233
23.81508,383085
23.82135,402089
23.82760,408661
23.83385,383475
23.84012,386434
23.84637,358183
23.85262,351927
23.85888,364296
23.86513,419506
23.87138,467263
23.87765,513244
23.88390,510775
23.89015,469740
23.89640,418725
23.90267,383204
23.90892,362081
23.91517,356163
23.92143,372435
23.92768,380899
23.93393,390337
23.94020,388811
23.94645,441128
23.95270,696678
23.95897,1530229
23.96522,3257420
23.97147,6164372
23.97773,1.06597E+07
23.98398,1.558952E+07
23.99023,2.214974E+07
23.99650,3.058556E+07
24.00275,3.607568E+07
24.00900,3.298844E+07
24.01527,2.333817E+07
24.02152,1.161686E+07
24.02777,5013936
24.03403,2243729
24.04028,1392994
24.04653,1094521
24.05280,933708
24.05905,839768
24.06530,839543
24.07157,956709
24.07782,1077810
24.08407,1117087
24.09033,1125580
24.09658,1337491
24.10283,2295768
24.10908,4217418
24.11535,6598400
24.12160,7959431
24.12785,7428293
24.13412,5811594
24.14037,3281763
24.14662,1706162
24.15288,989127
24.15913,737860
24.16538,653033
24.17165,644328
24.17790,688786
24.18415,828271
24.19042,1135851
24.19667,1801332
24.20292,3726183
24.20918,7907771
24.21543,1.454752E+07
24.22168,2.377337E+07
24.22795,3.296937E+07
24.23420,4.043644E+07
24.24045,4.40061E+07
24.24672,4.590144E+07
24.25297,4.57162E+07
24.25922,4.467169E+07
24.26548,4.338734E+07
24.27173,4.225952E+07
24.27798,4.280801E+07
24.28425,3.132834E+07
24.29050,7002723
24.29675,3474486
24.30302,2680437
24.30927,2304070
24.31552,2106889
24.32178,1943315
24.32803,1871859
24.33428,1879884
24.34053,1902537
24.34680,1902599
24.35305,1983538
24.35930,1991452
24.36557,2125969
24.37182,2455154
24.37807,2828264
24.38433,3120280
24.39058,2986941
24.39683,2598516
24.40310,2183302
24.40935,1776554
24.41560,1573820
24.42187,1511211
24.42812,1641371
24.43437,1917584
24.44063,2254801
24.44688,2440895
24.45313,2330041
24.45940,1928188
24.46565,1481899
24.47190,1201256
24.47817,1085695
24.48442,1027548
24.49067,980110
24.49693,988479
24.50318,971597
24.50943,975139
24.51570,941656
24.52195,910291
24.52820,854120
24.53447,837722
24.54072,813310
24.54697,806998
24.55322,803345
24.55948,796665
24.56573,830136
24.57198,881040
24.57825,912205
24.58450,897746
24.59075,849213
24.59702,729722
24.60327,653655
24.60952,583588
24.61578,550346
24.62203,522672
24.62828,516777
24.63455,503686
24.64080,501378
24.64705,485809
24.65332,473257
24.65957,451997
24.66582,447693
24.67208,449323
24.67833,458346
24.68458,480997
24.69085,495202
24.69710,489548
24.70335,485821
24.70962,479282
24.71587,474187
24.72212,468938
24.72838,442374
24.73463,424732
24.74088,414466
24.74715,404377
24.75340,392551
24.75965,378993
24.76592,377334
24.77217,368325
24.77842,369070
24.78467,370697
24.79093,354626
24.79718,348228
24.80343,339742
24.80970,338779
24.81595,329939
24.82220,330855
24.82847,319153
24.83472,309355
24.84097,300443
24.84723,297439
24.85348,296046
24.85973,298595
24.86600,311404
24.87225,339249
24.87850,378749
24.88477,449573
24.89102,533550
24.89727,571069
24.90353,526379
24.90978,453154
24.91603,402937
24.92230,370157
24.92855,365801
24.93480,378156
24.94107,414260
24.94732,500514
24.95357,615288
24.95983,653971
24.96608,601515
24.97233,499139
24.97860,416441
24.98485,372137
24.99110,352666
24.99735,348506
25.00362,327328
25.00987,327985
25.01612,348611
25.02238,370329
25.02863,406078
25.03488,423597
25.04115,426552
25.04740,414353
25.05365,415727
25.05992,408702
25.06617,379105
25.07242,332932
25.07868,311941
25.08493,286752
25.09118,283943
25.09745,286638
25.10370,283467
25.10995,292969
25.11622,287562
25.12247,295018
25.12872,303929
25.13498,295375
25.14123,288609
25.14748,279624
25.15375,260701
25.16000,250670
25.16625,250810
25.17252,261006
25.17877,275975
25.18502,297867
25.19128,314216
25.19753,305467
25.20378,290875
25.21003,273326
25.21630,256965
25.22255,246911
25.22880,248391
25.23507,245258
25.24132,243157
25.24757,262023
25.25383,288266
25.26008,317160
25.26633,324376
25.27260,314251
25.27885,306869
25.28510,323323
25.29137,355218
25.29762,407312
25.30387,404485
25.31013,382757
25.31638,340839
25.32263,291954
25.32890,269755
25.33515,262070
25.34140,250878
25.34767,249133
25.35392,240348
25.36017,247276
25.36643,241501
25.37268,241895
25.37893,255360
25.38520,257874
25.39145,311190
25.39770,440511
25.40397,672181
25.41022,934430
25.41647,1074500
25.42273,923765
25.42898,692346
25.43523,523202
25.44148,424903
25.44775,381077
25.45400,350907
25.46025,329688
25.46652,329567
25.47277,319434
25.47902,307079
25.48528,302602
25.49153,321764
25.49778,342655
25.50405,373404
25.51030,390595
25.51655,379060
25.52282,374938
25.52907,427380
25.53532,557523
25.54158,771311
25.54783,867063
25.55408,774757
25.56035,604784
25.56660,427155
25.57285,323106
25.57912,275933
25.58537,251561
25.59162,249924
25.59788,253857
25.60413,265626
25.61038,267679
25.61665,264970
25.62290,258294
25.62915,247681
25.63542,244148
25.64167,241927
25.64792,234935
25.65417,230222
25.66043,221621
25.66668,226008
25.67293,226606
25.67920,223858
25.68545,222382
25.69170,223269
25.69797,227320
25.70422,219274
25.71047,218475
25.71673,215636
25.72298,213647
25.72923,213308
25.73550,208950
25.74175,215996
25.74800,217140
25.75427,220507
25.76052,230087
25.76677,224965
25.77303,225984
25.77928,232907
25.78553,236440
25.79180,238279
25.79805,235964
25.80430,222759
25.81057,218357
25.81682,213033
25.82307,205658
25.82933,203032
25.83558,197863
25.84183,206299
25.84810,207299
25.85435,210786
25.86060,220116
25.86685,224625
25.87312,226452
25.87937,219280
25.88562,219850
25.89188,220168
25.89813,222896
25.90438,228042
25.91065,221434
25.91690,214871
25.92315,213499
25.92942,212523
25.93567,207951
25.94192,207155
25.94818,210848
25.95443,207153
25.96068,205739
25.96695,204083
25.97320,208236
25.97945,211378
25.98572,217748
25.99197,221863
25.99822,213937
26.00448,217353
26.01073,213405
26.01698,217060
26.02325,221044
26.02950,215236
26.03575,223332
26.04202,224510
26.04827,233764
26.05452,225500
26.06078,232493
26.06703,241621
26.07328,252948
26.07955,268426
26.08580,266707
26.09205,273885
26.09830,258603
26.10457,254734
26.11082,238299
26.11707,235383
26.12333,226747
26.12958,218013
26.13583,217489
26.14210,208893
26.14835,212079
26.15460,207097
26.16087,202243
26.16712,210612
26.17337,214754
26.17963,219152
26.18588,212839
26.19213,208755
26.19840,201400
26.20465,203263
26.21090,205467
26.21717,207037
26.22342,205477
26.22967,211378
26.23593,202834
26.24218,204449
26.24843,202562
26.25470,208083
26.26095,205344
26.26720,210165
26.27347,203149
26.27972,210940
26.28597,212195
26.29223,213882
26.29848,212663
26.30473,213247
26.31098,219045
26.31725,210412
26.32350,211248
26.32975,209806
26.33602,205068
26.34227,211011
26.34852,212709
26.35478,227299
26.36103,254995
26.36728,335063
26.37355,466205
26.37980,632262
26.38605,692994
26.39232,640052
26.39857,495004
26.40482,356844
26.41108,285439
26.41733,253743
26.42358,246496
26.42985,243686
26.43610,244377
26.44235,233746
26.44862,232607
26.45487,235110
26.46112,231969
26.46738,232802
26.47363,227499
26.47988,241227
26.48615,235040
26.49240,238305
26.49865,239600
26.50492,237347
26.51117,230583
26.51742,237857
26.52367,256073
26.52993,272728
26.53618,286430
26.54243,288307
26.54870,275013
26.55495,261417
26.56120,245487
26.56747,233698
26.57372,236211
26.57997,226815
26.58623,226411
26.59248,227830
26.59873,227997
26.60500,246376
26.61125,256575
26.61750,267296
26.62377,271440
26.63002,258339
26.63627,247728
26.64253,250876
26.64878,296835
26.65503,396854
26.66130,606211
26.66755,901383
26.67380,1162874
26.68007,1208214
26.68632,1070213
26.69257,802142
26.69883,656831
26.70508,584473
26.71133,523614
26.71760,452183
26.72385,379325
26.73010,327276
26.73637,302751
26.74262,302008
26.74887,319058
26.75512,379674
26.76138,496386
26.76763,646583
26.77388,708124
26.78015,667783
26.78640,539724
26.79265,486747
26.79892,481057
26.80517,474246
26.81142,440186
26.81768,442024
26.82393,539587
26.83018,768889
26.83645,1106380
26.84270,1243762
26.84895,1109618
26.85522,855463
26.86147,583582
26.86772,432767
26.87398,385722
26.88023,432913
26.88648,525798
26.89275,643730
26.89900,849969
26.90525,1510969
26.91152,3251419
26.91777,7404726
26.92402,1.355757E+07
26.93028,2.045074E+07
26.93653,2.910229E+07
26.94278,3.536178E+07
26.94905,3.39098E+07
26.95530,2.144232E+07
26.96155,9095771
26.96780,3928780
26.97407,2234845
26.98032,1430096
26.98657,940876
26.99283,689397
26.99908,581964
27.00533,614632
27.01160,774216
27.01785,1219900
27.02410,1644658
27.03037,1952455
27.03662,1746439
27.04287,1218423
27.04913,811798
27.05538,621381
27.06163,555832
27.06790,524196
27.07415,483598
27.08040,449297
27.08667,408975
27.09292,387556
27.09917,361396
27.10543,350422
27.11168,343982
27.11793,358384
27.12420,416016
27.13045,509991
27.13670,633163
27.14297,702204
27.14922,668907
27.15547,549989
27.16173,461454
27.16798,401413
27.17423,378139
27.18050,369382
27.18675,366927
27.19300,352188
27.19925,344150
27.20552,344274
27.21177,359358
27.21802,353111
27.22428,345905
27.23053,343091
27.23678,336446
27.24305,343349
27.24930,353060
27.25555,362315
27.26182,368232
27.26807,347692
27.27432,328999
27.28058,324851
27.28683,322876
27.29308,319868
27.29935,321055
27.30560,322275
27.31185,320319
27.31812,324726
27.32437,315245
27.33062,310860
27.33688,312522
27.34313,306571
27.34938,320932
27.35565,326958
27.36190,337669
27.36815,334834
27.37442,317369
27.38067,316079
27.38692,313662
27.39318,323653
27.39943,343155
27.40568,392259
27.41193,424703
27.41820,431155
27.42445,393889
27.43070,368710
27.43697,333742
27.44322,322162
27.44947,305607
27.45573,294289
27.46198,297009
27.46823,286282
27.47450,283462
27.48075,294797
27.48700,295756
27.49327,292096
27.49952,290932
27.50577,280673
27.51203,280458
27.51828,277253
27.52453,277654
27.53080,293180
27.53705,291674
27.54330,289763
27.54957,286352
27.55582,281227
27.56207,276241
27.56833,273040
27.57458,279521
27.58083,284751
27.58710,283475
27.59335,288745
27.59960,285752
27.60587,284243
27.61212,292582
27.61837,289512
27.62463,282407
27.63088,294368
27.63713,291659
27.64338,285086
27.64965,280530
27.65590,284347
27.66215,277529
27.66842,282018
27.67467,294980
27.68092,288898
27.68718,298904
27.69343,289847
27.69968,286460
27.70595,288555
27.71220,304153
27.71845,312982
27.72472,321254
27.73097,320857
27.73722,326656
27.74348,323534
27.74973,326088
27.75598,329062
27.76225,337583
27.76850,327891
27.77475,318606
27.78102,311535
27.78727,298900
27.79352,300054
27.79978,292818
27.80603,299698
27.81228,297987
27.81855,293306
27.82480,290218
27.83105,295088
27.83732,319786
27.84357,346907
27.84982,435669
27.85607,616318
27.86233,886542
27.86858,1122724
27.87483,1176979
27.88110,1022679
27.88735,799984
27.89360,630385
27.89987,512789
27.90612,453940
27.91237,407152
27.91863,382005
27.92488,364138
27.93113,366761
27.93740,350183
27.94365,344316
27.94990,333808
27.95617,331755
27.96242,335286
27.96867,332403
27.97493,334562
27.98118,336740
27.98743,349291
27.99370,360051
27.99995,360089
28.00620,348546
28.01247,334619
28.01872,336382
28.02497,331268
28.03123,319749
28.03748,316637
28.04373,321668
28.05000,322179
28.05625,315016
28.06250,306556
28.06877,314405
28.07502,314432
28.08127,316067
28.08752,308625
28.09378,305176
28.10003,306351
28.10628,316515
28.11255,311929
28.11880,321410
28.12505,313925
28.13132,315048
28.13757,319116
28.14382,308934
28.15008,315323
28.15633,314126
28.16258,314020
28.16885,314481
28.17510,317638
28.18135,305760
28.18762,307474
28.19387,317772
28.20012,323063
28.20638,322962
28.21263,317985
28.21888,317280
28.22515,325515
28.23140,316835
28.23765,322555
28.24392,321622
28.25017,317644
28.25642,321159
28.26268,316927
28.26893,320433
28.27518,316632
28.28145,334733
28.28770,335766
28.29395,335897
28.30020,342305
28.30647,350971
28.31272,361085
28.31897,371185
28.32523,384650
28.33148,379083
28.33773,391031
28.34400,404073
28.35025,405619
28.35650,424540
28.36277,433456
28.36902,443672
28.37527,432979
28.38153,446040
28.38778,455616
28.39403,469458
28.40030,455404
28.40655,478501
28.41280,482883
28.41907,480116
28.42532,478549
28.43157,445962
28.43783,441778
28.44408,440122
28.45033,425910
28.45660,408385
28.46285,407647
28.46910,389206
28.47537,386261
28.48162,390691
28.48787,381934
28.49413,373249
28.50038,360804
28.50663,366819
28.51288,355837
28.51915,357016
28.52540,342722
28.53165,347318
28.53792,336682
28.54417,331298
28.55042,327327
28.55668,328755
28.56293,323203
28.56918,320003
28.57545,321900
28.58170,317406
28.58795,315611
28.59422,317971
28.60047,316720
28.60672,323337
28.61298,316047
28.61923,312268
28.62548,312633
28.63175,320658
28.63800,316284
28.64425,319614
28.65052,313170
28.65677,317695
28.66302,320166
28.66928,319199
28.67553,305064
28.68178,306899
28.68805,306556
28.69430,309275
28.70055,304983
28.70682,301930
28.71307,315250
28.71932,315220
28.72558,310563
28.73183,308420
28.73808,322672
28.74433,308520
28.75060,309374
28.75685,315101
28.76310,299731
28.76937,298030
28.77562,297484
28.78187,307025
28.78813,309094
28.79438,299260
28.80063,302197
28.80690,317646
28.81315,314911
28.81940,320434
28.82567,337002
28.83192,336819
28.83817,330762
28.84443,328333
28.85068,328222
28.85693,326521
28.86320,307732
28.86945,320862
28.87570,311667
28.88197,311950
28.88822,314344
28.89447,310626
28.90073,319169
28.90698,307789
28.91323,314918
28.91950,305851
28.92575,300004
28.93200,299883
28.93827,306571
28.94452,310381
28.95077,304900
28.95702,301351
28.96328,294213
28.96953,306010
28.97578,291938
28.98205,295223
28.98830,292402
28.99455,295702
29.00082,305676
29.00707,304764
29.01332,293054
29.01958,293204
29.02583,296875
29.03208,296099
29.03835,298958
29.04460,287006
29.05085,291943
29.05712,288756
29.06337,286321
29.06962,287637
29.07588,289458
29.08213,293106
29.08838,287040
29.09465,288075
29.10090,288802
29.10715,300065
29.11342,290312
29.11967,300504
29.12592,291585
29.13218,288008
29.13843,285503
29.14468,296996
29.15095,295616
29.15720,294196
29.16345,285888
29.16970,288801
29.17597,288246
29.18222,294243
29.18847,286840
29.19473,296171
29.20098,291675
29.20723,300328
29.21350,326644
29.21975,357704
29.22600,422998
29.23227,503264
29.23852,631608
29.24477,681521
29.25103,699322
29.25728,658121
29.26353,601200
29.26980,519100
29.27605,462003
29.28230,406019
29.28857,374914
29.29482,362949
29.30107,346157
29.30733,331663
29.31358,335301
29.31983,331366
29.32610,316744
29.33235,323382
29.33860,306288
29.34487,308536
29.35112,302733
29.35737,315756
29.36363,305025
29.36988,305590
29.37613,305170
29.38240,303328
29.38865,297944
29.39490,292716
29.40115,305997
29.40742,291297
29.41367,287304
29.41992,299797
29.42618,300889
29.43243,298255
29.43868,290109
29.44495,293437
29.45120,296402
29.45745,283054
29.46372,284414
29.46997,281265
29.47622,287107
29.48248,292732
29.48873,281990
29.49498,288194
29.50125,279901
29.50750,279850
29.51375,290189
29.52002,290310
29.52627,277490
29.53252,287120
29.53878,287981
29.54503,289247
29.55128,283570
29.55755,278783
29.56380,287004
29.57005,287985
29.57632,279137
29.58257,284462
29.58882,287059
29.59508,280378
29.60133,288016
29.60758,288326
29.61383,277831
29.62010,277138
29.62635,286613
29.63260,291237
29.63887,291156
29.64512,281745
29.65137,282181
29.65763,289878
29.66388,271867
29.67013,288738
29.67640,287529
29.68265,275323
29.68890,274420
29.69517,270978
29.70142,280193
29.70767,278051
29.71393,269236
29.72018,272977
29.72643,282391
29.73270,281120
29.73895,278631
29.74520,274261
29.75147,271931
29.75772,275495
29.76397,268303
29.77023,273901
29.77648,272068
29.78273,281131
29.78900,267419
29.79525,279533
29.80150,277871
29.80777,276777
29.81402,282220
29.82027,271971
29.82653,278304
29.83278,264522
29.83903,280972
29.84528,272262
29.85155,263817
29.85780,272931
29.86405,275227
29.87032,278819
29.87657,269485
29.88282,268981
29.88908,270634
29.89533,271873
29.90158,270724
29.90785,274611
29.91410,271612
29.92035,276408
29.92662,273732
29.93287,279791
29.93912,274353
29.94538,267460
29.95163,268831
29.95788,265085
29.96415,274899
29.97040,273872
29.97665,261649
29.98292,265645
29.98917,271649
29.99542,265790
30.00168,268658
30.00793,261679
30.01418,268807
30.02045,266969
30.02670,266411
30.03295,265771
30.03922,262820
30.04547,264184
30.05172,266582
30.05797,268078
30.06423,268600
30.07048,260601
30.07673,270467
30.08300,260168
30.08925,263297
30.09550,257195
30.10177,262610
30.10802,268476
30.11427,267989
30.12053,263770
30.12678,259392
30.13303,258870
30.13930,271811
30.14555,270041
30.15180,271130
30.15807,260813
30.16432,265196
30.17057,264878
30.17683,261955
30.18308,265108
30.18933,268317
30.19560,257802
30.20185,256864
30.20810,257714
30.21437,259592
30.22062,267295
30.22687,259791
30.23313,267388
30.23938,266214
30.24563,261233
30.25190,265534
30.25815,266400
30.26440,258645
30.27067,263038
30.27692,261676
30.28317,266199
30.28942,255065
30.29568,261953
30.30193,263276
30.30818,261713
30.31445,254962
30.32070,267048
30.32695,264101
30.33322,268790
30.33947,259021
30.34572,254976
30.35198,254494
30.35823,254425
30.36448,255391
30.37075,262866
30.37700,255252
30.38325,262540
30.38952,262700
30.39577,259098
30.40202,260010
30.40828,248958
30.41453,252038
30.42078,255611
30.42705,262698
30.43330,258674
30.43955,253688
30.44582,255999
30.45207,250707
30.45832,252908
30.46458,251619
30.47083,252812
30.47708,247583
30.48335,256730
30.48960,252670
30.49585,249884
30.50210,249752
30.50837,254425
30.51462,260681
30.52087,251857
30.52713,250912
30.53338,250989
30.53963,252630
30.54590,263063
30.55215,257731
30.55840,259149
30.56467,245740
30.57092,249674
30.57717,256869
30.58343,248747
30.58968,248225
30.59593,248460
30.60220,248180
30.60845,250555
30.61470,248857
30.62097,254612
30.62722,254512
30.63347,252152
30.63973,246424
30.64598,248729
30.65223,254024
30.65850,250710
30.66475,258907
30.67100,257818
30.67727,264341
30.68352,279364
30.68977,278912
30.69603,279875
30.70228,283230
30.70853,283371
30.71480,283133
30.72105,274494
30.72730,265599
30.73355,267141
30.73982,256707
30.74607,264512
30.75232,249809
30.75858,252937
30.76483,260810
30.77108,257257
30.77735,259134
30.78360,246575
30.78985,250391
30.79612,259529
30.80237,257710
30.80862,256674
30.81488,247102
30.82113,244894
30.82738,247425
30.83365,253307
30.83990,244719
30.84615,247139
30.85242,245415
30.85867,253565
30.86492,248206
30.87118,245732
30.87743,247235
30.88368,246407
30.88995,247543
30.89620,247926
30.90245,245044
30.90872,249826
30.91497,259870
30.92122,257020
30.92748,246788
30.93373,245855
30.93998,247257
30.94623,254203
30.95250,254128
30.95875,258251
30.96500,262526
30.97127,268171
30.97752,277499
30.98377,289733
30.99003,311841
30.99628,338817
31.00253,344385
31.00880,367006
31.01505,367765
31.02130,365495
31.02757,353742
31.03382,339258
31.04007,320356
31.04633,305057
31.05258,287588
31.05883,275669
31.06510,269278
31.07135,262964
31.07760,258981
31.08387,263556
31.09012,260727
31.09637,251254
31.10263,261055
31.10888,261382
31.11513,246071
31.12140,247103
31.12765,253439
31.13390,252304
31.14017,246795
31.14642,248434
31.15267,246413
31.15892,257613
31.16518,256192
31.17143,248528
31.17768,246859
31.18395,258439
31.19020,246723
31.19645,244372
31.20272,250451
31.20897,245195
31.21522,249101
31.22148,243502
31.22773,250321
31.23398,241852
31.24025,239918
31.24650,251718
31.25275,248515
31.25902,244478
31.26527,243059
31.27152,252114
31.27778,243406
31.28403,243232
31.29028,240745
31.29655,246525
31.30280,249658
31.30905,247492
31.31532,245134
31.32157,240059
31.32782,239987
31.33408,241099
31.34033,238471
31.34658,237440
31.35285,248779
31.35910,239677
31.36535,243349
31.37162,245421
31.37787,245526
31.38412,246560
31.39037,245383
31.39663,247070
31.40288,245420
31.40913,246347
31.41540,255687
31.42165,247447
31.42790,244761
31.43417,243381
31.44042,244202
31.44667,240842
31.45293,240827
31.45918,244989
31.46543,250534
31.47170,236697
31.47795,238347
31.48420,240578
31.49047,247638
31.49672,236515
31.50297,243657
31.50923,247706
31.51548,236163
31.52173,232245
31.52800,241560
31.53425,240070
31.54050,243633
31.54677,240469
31.55302,238921
31.55927,242619
31.56553,233643
31.57178,236105
31.57803,232144
31.58430,231979
31.59055,240093
31.59680,236999
31.60305,233108
31.60932,231107
31.61557,231525
31.62182,231255
31.62808,228635
31.63433,231550
31.64058,231290
31.64685,238434
31.65310,224996
31.65935,237137
31.66562,242542
31.67187,233140
31.67812,240747
31.68438,234395
31.69063,229899
31.69688,240023
31.70315,229820
31.70940,236424
31.71565,231064
31.72192,230457
31.72817,237374
31.73442,231474
31.74068,232654
31.74693,231061
31.75318,230342
31.75945,229157
31.76570,239966
31.77195,229650
31.77822,234629
31.78447,228676
31.79072,230025
31.79698,228657
31.80323,233150
31.80948,227430
31.81573,234825
31.82200,226481
31.82825,231821
31.83450,226696
31.84077,232169
31.84702,223998
31.85327,232530
31.85953,234273
31.86578,227913
31.87203,229350
31.87830,231533
31.88455,227739
31.89080,223895
31.89707,231563
31.90332,224375
31.90957,230025
31.91583,224411
31.92208,224316
31.92833,234701
31.93460,232340
31.94085,228264
31.94710,229811
31.95337,222067
31.95962,229419
31.96587,222873
31.97213,223359
31.97838,230464
31.98463,222114
31.99090,223629
31.99715,233052
32.00340,233802
32.00967,225470
32.01592,221741
32.02217,227791
32.02843,232682
32.03468,229211
32.04093,226741
32.04718,227073
32.05345,223663
32.05970,227900
32.06595,230372
32.07222,222118
32.07847,224278
32.08472,226364
32.09098,222081
32.09723,230277
32.10348,225172
32.10975,230872
32.11600,230337
32.12225,219022
32.12852,230282
32.13477,233139
32.14102,224710
32.14728,226999
32.15353,225241
32.15978,224950
32.16605,221904
32.17230,229244
32.17855,218233
32.18482,219190
32.19107,223208
32.19732,220177
32.20358,219434
32.20983,227624
32.21608,222135
32.22235,217451
32.22860,227200
32.23485,227221
32.24112,219159
32.24737,228155
32.25362,219336
32.25987,228928
32.26613,229852
32.27238,224086
32.27863,223071
32.28490,225370
32.29115,227057
32.29740,223052
32.30367,226747
32.30992,232881
32.31617,228900
32.32243,229111
32.32868,229173
32.33493,226442
32.34120,229101
32.34745,231955
32.35370,223957
32.35997,218973
32.36622,221927
32.37247,220750
32.37873,223943
32.38498,226894
32.39123,218583
32.39750,223368
32.40375,219735
32.41000,218185
32.41627,227100
32.42252,218647
32.42877,218155
32.43503,217945
32.44128,219404
32.44753,222522
32.45380,216522
32.46005,223366
32.46630,224724
32.47257,231852
32.47882,214687
32.48507,221990
32.49132,220618
32.49758,217120
32.50383,219769
32.51008,218388
32.51635,217005
32.52260,222325
32.52885,228529
32.53512,217516
32.54137,216556
32.54762,221669
32.55388,218953
32.56013,213591
32.56638,225208
32.57265,217776
32.57890,218772
32.58515,218923
32.59142,222047
32.59767,227223
32.60392,223346
32.61018,214896
32.61643,218707
32.62268,216840
32.62895,226363
32.63520,213344
32.64145,224297
32.64772,221991
32.65397,224177
32.66022,221925
32.66648,213297
32.67273,212381
32.67898,213306
32.68525,217915
32.69150,212925
32.69775,221144
32.70400,214593
32.71027,211392
32.71652,212218
32.72277,214704
32.72903,219926
32.73528,213400
32.74153,211974
32.74780,212674
32.75405,212652
32.76030,221333
32.76657,210419
32.77282,212809
32.77907,213537
32.78533,218936
32.79158,216764
32.79783,212152
32.80410,212068
32.81035,210146
32.81660,211350
32.82287,210360
32.82912,215142
32.83537,210414
32.84163,210142
32.84788,214331
32.85413,215023
32.86040,215561
32.86665,210170
32.87290,213001
32.87917,205926
32.88542,207127
32.89167,209604
32.89793,210147
32.90418,209345
32.91043,218077
32.91670,209524
32.92295,215024
32.92920,207646
32.93545,212993
32.94172,212491
32.94797,217957
32.95422,217310
32.96048,207955
32.96673,209684
32.97298,218846
32.97925,210912
32.98550,216913
32.99175,212470
32.99802,215743
33.00427,207197
33.01052,209732
33.01678,209113
33.02303,209595
33.02928,214462
33.03555,207161
33.04180,219952
33.04805,207492
33.05432,207122
33.06057,213422
33.06682,211673
33.07308,214761
33.07933,210563
33.08558,205877
33.09185,210258
33.09810,210987
33.10435,216522
33.11062,205047
33.11687,209058
33.12312,213911
33.12938,207852
33.13563,217148
33.14188,224511
33.14813,226407
33.15440,218714
33.16065,224644
33.16690,229033
33.17317,236631
33.17942,233527
33.18567,228503
33.19193,229294
33.19818,232660
33.20443,222760
33.21070,217755
33.21695,224063
33.22320,212290
33.22947,213625
33.23572,211262
33.24197,207840
33.24823,209529
33.25448,215834
33.26073,216564
33.26700,208927
33.27325,208882
33.27950,214105
33.28577,202787
33.29202,214200
33.29827,209637
33.30453,209044
33.31078,215486
33.31703,208603
33.32330,215204
33.32955,215869
33.33580,222428
33.34207,219620
33.34832,221897
33.35457,226584
33.36083,229509
33.36708,231373
33.37333,232683
33.37958,238138
33.38585,235981
33.39210,236398
33.39835,232183
33.40462,228311
33.41087,231618
33.41712,221276
33.42338,215583
33.42963,221366
33.43588,221800
33.44215,210877
33.44840,208851
33.45465,207237
33.46092,213613
33.46717,209856
33.47342,203438
33.47968,215130
33.48593,205371
33.49218,211870
33.49845,213198
33.50470,203259
33.51095,204827
33.51722,201929
33.52347,204908
33.52972,205969
33.53598,204292
33.54223,209893
33.54848,200850
33.55475,216756
33.56100,200345
33.56725,209223
33.57352,209993
33.57977,200941
33.58602,210719
33.59227,206930
33.59853,207508
33.60478,203260
33.61103,202492
33.61730,205781
33.62355,202587
33.62980,201339
33.63607,203034
33.64232,207131
33.64857,214681
33.65483,206084
33.66108,205892
33.66733,202578
33.67360,212797
33.67985,208007
33.68610,202583
33.69237,203063
33.69862,198547
33.70487,210155
33.71113,202644
33.71738,199767
33.72363,206796
33.72990,200409
33.73615,198322
33.74240,198860
33.74867,196551
33.75492,207250
33.76117,206426
33.76743,205488
33.77368,197422
33.77993,197387
33.78620,205840
33.79245,199372
33.79870,199300
33.80495,204115
33.81122,200121
33.81747,201079
33.82372,196747
33.82998,200307
33.83623,204994
33.84248,205712
33.84875,205836
33.85500,200613
33.86125,197393
33.86752,205586
33.87377,203573
33.88002,196008
33.88628,205917
33.89253,199526
33.89878,206298
33.90505,195207
33.91130,203696
33.91755,197628
33.92382,200290
33.93007,198386
33.93632,203874
33.94258,206209
33.94883,196685
33.95508,200304
33.96135,197206
33.96760,195953
33.97385,197850
33.98012,202168
33.98637,196442
33.99262,197705
33.99888,197208
34.00513,203207
34.01138,197874
34.01765,202121
34.02390,195314
34.03015,194232
34.03640,200082
34.04267,200776
34.04892,201324
34.05517,196070
34.06143,201682
34.06768,195040
34.07393,201932
34.08020,199391
34.08645,193841
34.09270,197359
34.09897,198200
34.10522,196955
34.11147,194833
34.11773,195320
34.12398,195773
34.13023,196528
34.13650,196499
34.14275,200466
34.14900,200178
34.15527,203617
34.16152,201452
34.16777,197552
34.17403,200480
34.18028,196057
34.18653,198443
34.19280,202617
34.19905,196394
34.20530,191883
34.21157,198701
34.21782,203924
34.22407,201368
34.23033,195777
34.23658,193486
34.24283,196960
34.24908,203282
34.25535,202002
34.26160,190620
34.26785,194844
34.27412,192266
34.28037,194267
34.28662,191554
34.29288,190586
34.29913,192285
34.30538,191999
34.31165,197801
34.31790,195771
34.32415,191778
34.33042,198997
34.33667,198913
34.34292,194364
34.34918,190134
34.35543,191848
34.36168,193634
34.36795,195559
34.37420,198339
34.38045,192906
34.38672,196661
34.39297,190118
34.39922,192364
34.40548,197303
34.41173,191331
34.41798,203456
34.42425,190703
34.43050,191853
34.43675,193052
34.44302,193788
34.44927,191960
34.45552,191212
34.46177,187752
34.46803,190358
34.47428,196178
34.48053,188673
34.48680,197258
34.49305,196909
34.49930,189289
34.50557,189450
34.51182,186448
34.51807,189439
34.52433,192716
34.53058,192597
34.53683,190259
34.54310,189173
34.54935,193849
34.55560,197056
34.56187,187584
34.56812,194275
34.57437,190374
34.58063,194773
34.58688,184886
34.59313,191661
34.59940,194257
34.60565,192727
34.61190,187272
34.61817,189637
34.62442,197773
34.63067,190089
34.63693,193629
34.64318,192909
34.64943,190768
34.65570,195116
34.66195,189000
34.66820,183891
34.67447,186899
34.68072,193703
34.68697,190560
34.69322,191024
34.69948,190999
34.70573,195368
34.71198,186974
34.71825,192200
34.72450,194941
34.73075,193888
34.73702,190143
34.74327,187589
34.74952,190182
34.75578,186870
34.76203,187978
34.76828,188500
34.77455,189553
34.78080,192674
34.78705,192506
34.79332,194662
34.79957,193714
34.80582,194262
34.81208,196254
34.81833,195317
34.82458,195107
34.83085,185888
34.83710,190036
34.84335,190216
34.84962,192462
34.85587,188536
34.86212,188767
34.86838,184606
34.87463,192843
34.88088,187204
34.88715,186361
34.89340,190540
34.89965,184474
34.90590,194105
34.91217,185603
34.91842,188635
34.92467,187675
34.93093,194255
34.93718,181688
34.94343,186800
34.94970,183423
34.95595,184308
34.96220,186376
34.96847,186434
34.97472,185776
34.98097,191615
34.98723,186056
34.99348,183524
34.99973,185094
35.00600,184910
35.01225,187962
35.01850,190723
35.02477,189252
35.03102,183000
35.03727,189467
35.04353,193826
35.04978,188875
35.05603,184505
35.06230,189622
35.06855,185505
35.07480,183013
35.08107,187796
35.08732,190305
35.09357,184759
35.09983,186829
35.10608,185123
35.11233,185007
35.11860,186085
35.12485,191414
35.13110,185118
35.13735,185309
35.14362,190120
35.14987,184042
35.15612,190804
35.16238,181467
35.16863,188329
35.17488,182097
35.18115,180448
35.18740,184536
35.19365,188970
35.19992,188271
35.20617,185574
35.21242,185256
35.21868,188888
35.22493,181233
35.23118,185333
35.23745,189313
35.24370,179890
35.24995,188873
35.25622,183291
35.26247,181447
35.26872,187582
35.27498,178866
35.28123,186905
35.28748,180245
35.29375,187014
35.30000,182549
35.30625,182317
35.31252,180713
35.31877,183828
35.32502,179948
35.33128,182071
35.33753,184404
35.34378,187516
35.35003,187138
35.35630,185547
35.36255,184181
35.36880,182747
35.37507,184630
35.38132,186768
35.38757,189361
35.39383,191766
35.40008,185015
35.40633,182018
35.41260,187490
35.41885,182417
35.42510,191030
35.43137,181338
35.43762,181820
35.44387,180902
35.45013,181869
35.45638,179174
35.46263,182191
35.46890,183106
35.47515,182700
35.48140,180564
35.48767,182852
35.49392,188666
35.50017,181545
35.50643,178491
35.51268,188289
35.51893,183292
35.52520,179528
35.53145,178679
35.53770,189851
35.54397,182106
35.55022,180255
35.55647,184862
35.56273,182275
35.56898,186522
35.57523,183259
35.58148,179340
35.58775,180927
35.59400,186762
35.60025,186416
35.60652,190540
35.61277,188195
35.61902,187818
35.62528,183508
35.63153,181269
35.63778,185642
35.64405,181653
35.65030,188511
35.65655,185276
35.66282,177355
35.66907,185084
35.67532,186062
35.68158,187140
35.68783,187575
35.69408,177169
35.70035,185983
35.70660,183606
35.71285,178439
35.71912,177303
35.72537,183828
35.73162,186831
35.73788,177004
35.74413,178636
35.75038,182845
35.75665,180469
35.76290,179876
35.76915,177355
35.77542,182064
35.78167,183156
35.78792,186913
35.79417,177666
35.80043,177159
35.80668,178715
35.81293,182573
35.81920,176307
35.82545,174347
35.83170,173915
35.83797,172233
35.84422,180331
35.85047,174751
35.85673,179806
35.86298,178951
35.86923,180777
35.87550,181164
35.88175,175923
35.88800,175369
35.89427,176823
35.90052,173559
35.90677,182379
35.91303,178781
35.91928,182283
35.92553,185369
35.93180,181891
35.93805,177183
35.94430,177612
35.95057,173993
35.95682,176399
35.96307,175512
35.96933,176502
35.97558,179090
35.98183,182049
35.98810,177771
35.99435,175864
36.00060,175381
36.00687,182608
36.01312,175280
36.01937,173917
36.02562,180367
36.03188,179137
36.03813,173547
36.04438,176696
36.05065,173563
36.05690,179543
36.06315,175317
36.06942,176514
36.07567,182792
36.08192,175009
36.08818,181012
36.09443,178629
36.10068,182834
36.10695,177109
36.11320,175284
36.11945,179747
36.12572,173838
36.13197,180207
36.13822,174402
36.14448,172554
36.15073,176781
36.15698,171145
36.16325,171975
36.16950,179102
36.17575,177971
36.18202,175546
36.18827,175991
36.19452,180579
36.20078,174541
36.20703,179489
36.21328,179014
36.21955,181483
36.22580,189674
36.23205,190013
36.23830,190304
36.24457,202057
36.25082,203364
36.25707,214775
36.26333,224829
36.26958,238450
36.27583,244680
36.28210,263818
36.28835,280951
36.29460,293507
36.30087,311712
36.30712,319335
36.31337,332202
36.31963,344734
36.32588,349502
36.33213,354230
36.33840,356827
36.34465,344619
36.35090,335997
36.35717,333417
36.36342,307941
36.36967,290551
36.37593,268619
36.38218,259331
36.38843,245872
36.39470,237729
36.40095,221195
36.40720,216358
36.41347,210990
36.41972,203975
36.42597,200395
36.43223,203622
36.43848,199264
36.44473,191694
36.45098,196131
36.45725,187572
36.46350,194948
36.46975,193836
36.47602,189830
36.48227,191235
36.48852,190897
36.49478,181672
36.50103,187757
36.50728,185303
36.51355,189063
36.51980,181950
36.52605,181210
36.53232,182296
36.53857,183667
36.54482,177338
36.55108,188065
36.55733,186449
36.56358,177830
36.56985,180344
36.57610,185369
36.58235,182339
36.58862,180377
36.59487,182536
36.60112,179105
36.60738,181726
36.61363,183392
36.61988,179816
36.62615,184317
36.63240,180663
36.63865,177711
36.64492,186327
36.65117,178704
36.65742,184764
36.66368,182363
36.66993,186518
36.67618,178757
36.68243,183452
36.68870,174171
36.69495,179845
36.70120,171326
36.70747,180392
36.71372,177395
36.71997,178809
36.72623,172569
36.73248,174938
36.73873,177111
36.74500,181554
36.75125,176074
36.75750,173503
36.76377,171145
36.77002,179155
36.77627,178083
36.78253,174766
36.78878,177028
36.79503,178891
36.80130,179895
36.80755,178886
36.81380,172461
36.82007,177763
36.82632,167811
36.83257,175870
36.83883,177175
36.84508,171694
36.85133,171383
36.85760,177032
36.86385,170685
36.87010,175846
36.87637,176891
36.88262,170675
36.88887,177036
36.89512,175166
36.90138,175251
36.90763,175572
36.91388,176230
36.92015,174604
36.92640,173352
36.93265,174284
36.93892,168963
36.94517,170437
36.95142,173254
36.95768,175741
36.96393,170727
36.97018,169218
36.97645,172477
36.98270,175030
36.98895,177528
36.99522,176154
37.00147,167111
37.00772,176816
37.01398,176688
37.02023,167329
37.02648,178616
37.03275,170554
37.03900,168287
37.04525,176110
37.05152,172992
37.05777,174061
37.06402,176270
37.07028,173053
37.07653,172207
37.08278,176241
37.08905,169414
37.09530,170543
37.10155,167064
37.10780,177118
37.11407,174676
37.12032,170940
37.12657,174227
37.13283,166207
37.13908,169915
37.14533,170616
37.15160,172537
37.15785,166552
37.16410,169756
37.17037,173728
37.17662,165481
37.18287,172524
37.18913,171858
37.19538,166678
37.20163,169289
37.20790,174158
37.21415,172768
37.22040,167519
37.22667,173618
37.23292,168139
37.23917,172693
37.24543,172171
37.25168,169448
37.25793,170212
37.26420,172293
37.27045,167684
37.27670,171265
37.28297,169312
37.28922,170224
37.29547,167583
37.30173,166265
37.30798,166061
37.31423,171847
37.32050,166932
37.32675,165645
37.33300,171579
37.33925,168767
37.34552,172531
37.35177,171208
37.35802,166870
37.36428,165580
37.37053,168908
37.37678,168977
37.38305,164627
37.38930,167020
37.39555,170720
37.40182,165618
37.40807,167010
37.41432,163661
37.42058,169451
37.42683,171075
37.43308,169036
37.43935,165982
37.44560,165765
37.45185,164622
37.45812,169803
37.46437,164838
37.47062,167766
37.47688,162008
37.48313,169542
37.48938,163241
