D:\MassHunter\GCMS\1\data\metastasis_lineages_3replicates_3runs_10302020\M_plate3_run3_10302020.D Sat Oct 31 17:08:44 2020
Start of data points
5.99343,161435
5.99968,156382
6.00595,156511
6.01220,162956
6.01845,170543
6.02472,180121
6.03097,176489
6.03722,183911
6.04348,193393
6.04973,180029
6.05598,174195
6.06225,180510
6.06850,181569
6.07475,192330
6.08102,191467
6.08727,191461
6.09352,258588
6.09978,507915
6.10603,997184
6.11228,1303620
6.11855,1082279
6.12480,649167
6.13105,404635
6.13732,299237
6.14357,273804
6.14982,315598
6.15607,520796
6.16233,912795
6.16858,1236511
6.17483,1199630
6.18110,809353
6.18735,508473
6.19360,345497
6.19987,269256
6.20612,226984
6.21237,203072
6.21863,197198
6.22488,208754
6.23113,201626
6.23740,200303
6.24365,187055
6.24990,165433
6.25617,166775
6.26242,164326
6.26867,168296
6.27493,175631
6.28118,180953
6.28743,178077
6.29370,166970
6.29995,160236
6.30620,150176
6.31247,166312
6.31872,171967
6.32497,189029
6.33123,230293
6.33748,317381
6.34373,439061
6.35000,446600
6.35625,346813
6.36250,234391
6.36877,196248
6.37502,189758
6.38127,186006
6.38752,176368
6.39378,193873
6.40003,232896
6.40628,340345
6.41255,540738
6.41880,784237
6.42505,976028
6.43132,1093068
6.43757,1019946
6.44382,720793
6.45008,430207
6.45633,406068
6.46258,772083
6.46885,1701297
6.47510,3296003
6.48135,5830764
6.48762,1.068823E+07
6.49387,1.916882E+07
6.50012,2.637252E+07
6.50638,2.651631E+07
6.51263,1.593717E+07
6.51888,4407350
6.52515,818741
6.53140,361571
6.53765,355929
6.54392,438195
6.55017,557223
6.55642,753603
6.56268,1284945
6.56893,2375512
6.57518,3105597
6.58145,2502186
6.58770,1290237
6.59395,590647
6.60020,371195
6.60647,326126
6.61272,300983
6.61897,276250
6.62523,276311
6.63148,283988
6.63773,303162
6.64400,286888
6.65025,265268
6.65650,254233
6.66277,263666
6.66902,331734
6.67527,426579
6.68153,466326
6.68778,410574
6.69403,325959
6.70030,285886
6.70655,283172
6.71280,298069
6.71907,316382
6.72532,331404
6.73157,330238
6.73783,331589
6.74408,359101
6.75033,358168
6.75660,357855
6.76285,360573
6.76910,358805
6.77537,368810
6.78162,376687
6.78787,376629
6.79413,395651
6.80038,414733
6.80663,437546
6.81288,439188
6.81915,449970
6.82540,464598
6.83165,470177
6.83792,493867
6.84417,538583
6.85042,628071
6.85668,686377
6.86293,642521
6.86918,555038
6.87545,513564
6.88170,532518
6.88795,603518
6.89422,678712
6.90047,670011
6.90672,582808
6.91298,508367
6.91923,471002
6.92548,457989
6.93175,449428
6.93800,440569
6.94425,448051
6.95052,429856
6.95677,413307
6.96302,394750
6.96928,388425
6.97553,382374
6.98178,401943
6.98805,394716
6.99430,361825
7.00055,327503
7.00682,321735
7.01307,305273
7.01932,313455
7.02558,354074
7.03183,449568
7.03808,652304
7.04433,1123471
7.05060,1866240
7.05685,2432153
7.06310,2159877
7.06937,1274483
7.07562,581699
7.08187,297302
7.08813,209763
7.09438,191723
7.10063,169345
7.10690,163492
7.11315,153597
7.11940,156879
7.12567,145089
7.13192,150235
7.13817,169955
7.14443,185414
7.15068,171842
7.15693,148847
7.16320,136822
7.16945,131799
7.17570,129204
7.18197,125573
7.18822,125951
7.19447,128511
7.20073,129035
7.20698,125993
7.21323,122940
7.21950,117875
7.22575,122987
7.23200,134221
7.23827,143087
7.24452,160835
7.25077,186071
7.25702,247361
7.26328,399917
7.26953,629542
7.27578,737483
7.28205,608395
7.28830,395802
7.29455,247760
7.30082,189103
7.30707,162327
7.31332,150018
7.31958,140974
7.32583,126130
7.33208,122885
7.33835,124278
7.34460,121789
7.35085,119550
7.35712,119190
7.36337,119939
7.36962,121007
7.37588,113405
7.38213,121592
7.38838,147261
7.39465,160442
7.40090,168490
7.40715,155186
7.41342,163011
7.41967,228000
7.42592,364876
7.43218,486354
7.43843,513628
7.44468,427039
7.45095,276207
7.45720,183113
7.46345,155841
7.46972,163533
7.47597,169690
7.48222,180788
7.48847,197309
7.49473,211189
7.50098,198536
7.50723,169062
7.51350,149232
7.51975,125561
7.52600,116451
7.53227,113777
7.53852,118581
7.54477,128366
7.55103,223670
7.55728,819689
7.56353,3157364
7.56980,9154436
7.57605,1.804832E+07
7.58230,2.634187E+07
7.58857,3.0067E+07
7.59482,2.499929E+07
7.60107,1.153813E+07
7.60733,3394332
7.61358,1457565
7.61983,990002
7.62610,792414
7.63235,590662
7.63860,393349
7.64487,268909
7.65112,205910
7.65737,178932
7.66363,172449
7.66988,198159
7.67613,253201
7.68240,335714
7.68865,368956
7.69490,297313
7.70115,213873
7.70742,177489
7.71367,207385
7.71992,310042
7.72618,412645
7.73243,412409
7.73868,384160
7.74495,312117
7.75120,251613
7.75745,197906
7.76372,160959
7.76997,150708
7.77622,146848
7.78248,148560
7.78873,149271
7.79498,152134
7.80125,149203
7.80750,143476
7.81375,149346
7.82002,160901
7.82627,209623
7.83252,276700
7.83878,295249
7.84503,264184
7.85128,199580
7.85755,176580
7.86380,176544
7.87005,184685
7.87632,190811
7.88257,209349
7.88882,245016
7.89508,236977
7.90133,215671
7.90758,195184
7.91385,196929
7.92010,193565
7.92635,179756
7.93260,159997
7.93887,140844
7.94512,141098
7.95137,159904
7.95763,210921
7.96388,246448
7.97013,247381
7.97640,234379
7.98265,243751
7.98890,330913
7.99517,582661
8.00142,1032847
8.00767,1590741
8.01393,2267241
8.02018,2847051
8.02643,2627106
8.03270,1822079
8.03895,1118670
8.04520,909140
8.05147,1018601
8.05772,1042111
8.06397,826685
8.07023,523366
8.07648,296786
8.08273,195997
8.08900,174708
8.09525,195601
8.10150,220865
8.10777,240399
8.11402,249536
8.12027,245813
8.12653,228272
8.13278,198935
8.13903,177801
8.14528,184161
8.15155,170013
8.15780,162144
8.16405,152471
8.17032,150259
8.17657,145060
8.18282,141941
8.18908,141970
8.19533,134162
8.20158,123810
8.20785,120270
8.21410,120821
8.22035,125480
8.22662,128968
8.23287,135722
8.23912,146623
8.24538,163907
8.25163,166561
8.25788,164201
8.26415,162515
8.27040,166146
8.27665,184464
8.28292,206219
8.28917,204329
8.29542,205183
8.30168,186631
8.30793,157757
8.31418,125491
8.32045,116914
8.32670,111280
8.33295,115758
8.33922,127660
8.34547,132605
8.35172,127873
8.35798,131972
8.36423,144387
8.37048,147989
8.37673,142971
8.38300,138671
8.38925,128964
8.39550,117253
8.40177,122824
8.40802,123509
8.41427,128705
8.42053,131636
8.42678,134076
8.43303,149711
8.43930,153041
8.44555,144004
8.45180,139330
8.45807,134642
8.46432,132684
8.47057,133690
8.47683,134196
8.48308,140319
8.48933,144874
8.49560,137898
8.50185,150521
8.50810,161660
8.51437,164745
8.52062,157137
8.52687,135573
8.53313,117031
8.53938,110848
8.54563,106250
8.55190,120834
8.55815,143825
8.56440,230339
8.57067,381190
8.57692,495809
8.58317,508786
8.58942,504426
8.59568,620814
8.60193,908237
8.60818,1486907
8.61445,3381975
8.62070,7611720
8.62695,1.332701E+07
8.63322,1.545689E+07
8.63947,1.206793E+07
8.64572,5627233
8.65198,1598029
8.65823,433811
8.66448,232762
8.67075,196231
8.67700,187087
8.68325,170929
8.68952,156519
8.69577,152421
8.70202,163787
8.70828,198189
8.71453,227536
8.72078,225853
8.72705,198903
8.73330,170491
8.73955,165380
8.74582,200753
8.75207,212453
8.75832,196647
8.76458,154265
8.77083,124602
8.77708,112430
8.78335,119194
8.78960,116722
8.79585,118460
8.80210,111459
8.80837,101147
8.81462,102777
8.82087,122690
8.82713,232142
8.83338,665680
8.83963,1766969
8.84590,3857897
8.85215,6379624
8.85840,8298253
8.86467,9047552
8.87092,8324804
8.87717,5945332
8.88343,2216806
8.88968,581933
8.89593,284074
8.90220,224479
8.90845,198880
8.91470,163348
8.92097,148827
8.92722,141582
8.93347,138174
8.93973,136288
8.94598,138019
8.95223,154470
8.95850,187236
8.96475,231326
8.97100,278815
8.97727,327414
8.98352,356471
8.98977,396175
8.99603,508610
9.00228,718136
9.00853,939071
9.01480,1023809
9.02105,854150
9.02730,581532
9.03355,373127
9.03982,267370
9.04607,222079
9.05232,192616
9.05858,187792
9.06483,196534
9.07108,191665
9.07735,175985
9.08360,163085
9.08985,166417
9.09612,181763
9.10237,180682
9.10862,179583
9.11488,163285
9.12113,142297
9.12738,129486
9.13365,125196
9.13990,127921
9.14615,142983
9.15242,174740
9.15867,218917
9.16492,255061
9.17118,267415
9.17743,288999
9.18368,371681
9.18995,568833
9.19620,766335
9.20245,746157
9.20872,609093
9.21497,456741
9.22122,338006
9.22748,251321
9.23373,223101
9.23998,260554
9.24623,340477
9.25250,386581
9.25875,332534
9.26500,233899
9.27127,159135
9.27752,122310
9.28377,120058
9.29003,130996
9.29628,165072
9.30253,228529
9.30880,316046
9.31505,412365
9.32130,494000
9.32757,528350
9.33382,516953
9.34007,647384
9.34633,979323
9.35258,1301089
9.35883,1234505
9.36510,872165
9.37135,545322
9.37760,794701
9.38387,2584417
9.39012,6986777
9.39637,1.251818E+07
9.40263,1.552635E+07
9.40888,1.276362E+07
9.41513,6569267
9.42140,2107119
9.42765,986783
9.43390,2305385
9.44017,7487063
9.44642,1.764903E+07
9.45267,3.11411E+07
9.45892,4.312408E+07
9.46518,4.944755E+07
9.47143,5.132127E+07
9.47768,4.890289E+07
9.48395,2.956713E+07
9.49020,5043823
9.49645,666400
9.50272,241432
9.50897,180768
9.51522,185044
9.52148,188572
9.52773,183490
9.53398,172821
9.54025,170322
9.54650,177035
9.55275,170553
9.55902,164354
9.56527,174140
9.57152,185132
9.57778,195361
9.58403,194999
9.59028,195826
9.59655,203559
9.60280,213722
9.60905,240460
9.61532,253265
9.62157,240372
9.62782,185512
9.63408,146547
9.64033,134883
9.64658,132251
9.65285,134001
9.65910,139012
9.66535,131394
9.67162,148335
9.67787,313242
9.68412,1201871
9.69037,4122741
9.69663,9639772
9.70288,1.485958E+07
9.70913,1.536724E+07
9.71540,1.032941E+07
9.72165,3973234
9.72790,1114549
9.73417,514700
9.74042,493517
9.74667,492933
9.75293,391134
9.75918,272980
9.76543,202978
9.77170,180421
9.77795,169986
9.78420,169154
9.79047,162775
9.79672,143046
9.80297,134893
9.80923,130858
9.81548,127598
9.82173,131292
9.82800,133365
9.83425,155166
9.84050,177875
9.84677,208492
9.85302,329559
9.85927,899277
9.86553,2761742
9.87178,5985362
9.87803,8584194
9.88430,8053293
9.89055,4688349
9.89680,2027865
9.90305,1268646
9.90932,1503916
9.91557,1590401
9.92182,1169367
9.92808,580575
9.93433,273653
9.94058,189812
9.94685,185986
9.95310,233728
9.95935,359092
9.96562,645611
9.97187,1011608
9.97812,1297861
9.98438,1373584
9.99063,1250278
9.99688,1077927
10.00315,794294
10.00940,518282
10.01565,331345
10.02192,260814
10.02817,224533
10.03442,196769
10.04068,192389
10.04693,188593
10.05318,186657
10.05945,174764
10.06570,145196
10.07195,138610
10.07822,138966
10.08447,155893
10.09072,189717
10.09698,221605
10.10323,230925
10.10948,212258
10.11575,177686
10.12200,153767
10.12825,137084
10.13450,132224
10.14077,124207
10.14702,126835
10.15327,125671
10.15953,126011
10.16578,132491
10.17203,136841
10.17830,154923
10.18455,170583
10.19080,174392
10.19707,164410
10.20332,147198
10.20957,143335
10.21583,168310
10.22208,253911
10.22833,458566
10.23460,775289
10.24085,1110359
10.24710,1166353
10.25337,940886
10.25962,592317
10.26587,384665
10.27213,284234
10.27838,229916
10.28463,210535
10.29090,234933
10.29715,251437
10.30340,233711
10.30967,214657
10.31592,196698
10.32217,177681
10.32843,162956
10.33468,160285
10.34093,157472
10.34718,146587
10.35345,133498
10.35970,141836
10.36595,155876
10.37222,155519
10.37847,152673
10.38472,137733
10.39098,127728
10.39723,116584
10.40348,105262
10.40975,97739
10.41600,106081
10.42225,121233
10.42852,134918
10.43477,138109
10.44102,148700
10.44728,148579
10.45353,160083
10.45978,164688
10.46605,168203
10.47230,183429
10.47855,271444
10.48482,399343
10.49107,481915
10.49732,419892
10.50358,287408
10.50983,189097
10.51608,147037
10.52235,142421
10.52860,170490
10.53485,223148
10.54112,256000
10.54737,240911
10.55362,210883
10.55988,187779
10.56613,172244
10.57238,176999
10.57863,187486
10.58490,196998
10.59115,191258
10.59740,230072
10.60367,546433
10.60992,1798150
10.61617,4692910
10.62243,8335833
10.62868,9596000
10.63493,7494407
10.64120,3736583
10.64745,1314904
10.65370,398268
10.65997,198610
10.66622,168482
10.67247,183288
10.67873,192857
10.68498,197578
10.69123,183282
10.69750,161125
10.70375,144655
10.71000,136123
10.71627,152294
10.72252,158937
10.72877,171065
10.73503,171642
10.74128,170900
10.74753,155556
10.75380,144382
10.76005,143955
10.76630,145448
10.77257,148352
10.77882,154450
10.78507,154118
10.79132,156431
10.79758,155527
10.80383,155879
10.81008,161887
10.81635,177028
10.82260,186503
10.82885,176674
10.83512,152293
10.84137,138843
10.84762,141176
10.85388,149715
10.86013,155931
10.86638,165921
10.87265,171991
10.87890,170555
10.88515,169854
10.89142,166170
10.89767,168539
10.90392,177036
10.91018,176721
10.91643,162328
10.92268,160702
10.92895,182947
10.93520,187349
10.94145,169136
10.94772,145592
10.95397,142218
10.96022,225935
10.96648,668675
10.97273,2259209
10.97898,6027167
10.98525,1.200438E+07
10.99150,1.750168E+07
10.99775,1.802309E+07
11.00402,1.219919E+07
11.01027,5012401
11.01652,1390069
11.02277,396372
11.02903,254204
11.03528,280199
11.04153,305196
11.04780,311669
11.05405,340263
11.06030,381393
11.06657,379380
11.07282,315882
11.07907,219413
11.08533,163524
11.09158,150606
11.09783,153613
11.10410,159363
11.11035,158175
11.11660,169326
11.12287,172840
11.12912,191423
11.13537,208152
11.14163,208145
11.14788,220193
11.15413,292726
11.16040,461508
11.16665,692808
11.17290,764155
11.17917,634425
11.18542,407649
11.19167,247591
11.19793,213261
11.20418,269753
11.21043,437182
11.21670,611056
11.22295,623738
11.22920,478116
11.23545,325603
11.24172,242038
11.24797,236320
11.25422,255181
11.26048,261392
11.26673,252114
11.27298,243237
11.27925,273353
11.28550,291316
11.29175,268954
11.29802,226283
11.30427,190390
11.31052,208281
11.31678,310043
11.32303,526291
11.32928,761596
11.33555,793494
11.34180,600377
11.34805,361718
11.35432,192483
11.36057,135504
11.36682,127057
11.37308,125123
11.37933,119940
11.38558,113199
11.39185,120960
11.39810,126958
11.40435,136417
11.41062,138652
11.41687,134153
11.42312,127291
11.42938,126893
11.43563,140160
11.44188,160693
11.44813,195722
11.45440,218951
11.46065,203361
11.46690,175532
11.47317,158509
11.47942,152130
11.48567,148776
11.49193,155668
11.49818,152504
11.50443,152635
11.51070,149336
11.51695,136378
11.52320,132789
11.52947,130639
11.53572,143489
11.54197,154354
11.54823,160305
11.55448,157962
11.56073,140662
11.56700,133225
11.57325,122992
11.57950,130058
11.58577,129882
11.59202,130531
11.59827,137900
11.60453,138703
11.61078,134407
11.61703,129992
11.62330,135889
11.62955,141340
11.63580,144382
11.64207,151756
11.64832,165115
11.65457,192120
11.66083,217964
11.66708,209359
11.67333,187460
11.67958,155568
11.68585,139571
11.69210,139698
11.69835,152513
11.70462,182035
11.71087,207508
11.71712,236415
11.72338,243699
11.72963,237635
11.73588,234935
11.74215,229358
11.74840,204221
11.75465,173071
11.76092,169969
11.76717,183016
11.77342,203426
11.77968,204124
11.78593,208803
11.79218,210091
11.79845,209863
11.80470,207939
11.81095,204861
11.81722,204059
11.82347,235723
11.82972,371310
11.83598,614083
11.84223,757553
11.84848,687129
11.85475,480279
11.86100,294944
11.86725,207025
11.87352,190274
11.87977,211207
11.88602,281457
11.89227,376412
11.89853,442084
11.90478,444138
11.91103,373129
11.91730,287738
11.92355,236687
11.92980,228420
11.93607,310394
11.94232,595563
11.94857,1394380
11.95483,2928885
11.96108,4950853
11.96733,6558179
11.97360,5978063
11.97985,3556753
11.98610,1427418
11.99237,558993
11.99862,327191
12.00487,271219
12.01113,264143
12.01738,292748
12.02363,316441
12.02990,379330
12.03615,501157
12.04240,789710
12.04867,1255303
12.05492,1775980
12.06117,1935455
12.06743,1542920
12.07368,929416
12.07993,529834
12.08620,405885
12.09245,378796
12.09870,388637
12.10495,367764
12.11122,313037
12.11747,266451
12.12372,240554
12.12998,232230
12.13623,226961
12.14248,219289
12.14875,202617
12.15500,190017
12.16125,194457
12.16752,199994
12.17377,208839
12.18002,213671
12.18628,216814
12.19253,255110
12.19878,329265
12.20505,470264
12.21130,640054
12.21755,769174
12.22382,771593
12.23007,669485
12.23632,542568
12.24258,549298
12.24883,730014
12.25508,1119477
12.26135,1513410
12.26760,1671152
12.27385,1370730
12.28012,937249
12.28637,621666
12.29262,422468
12.29888,306227
12.30513,233108
12.31138,196318
12.31765,177646
12.32390,166317
12.33015,166928
12.33640,180980
12.34267,214021
12.34892,268319
12.35517,307107
12.36143,316700
12.36768,275116
12.37393,266644
12.38020,300352
12.38645,399474
12.39270,446078
12.39897,408889
12.40522,318407
12.41147,250559
12.41773,232669
12.42398,246013
12.43023,300145
12.43650,359965
12.44275,389284
12.44900,367340
12.45527,311629
12.46152,259567
12.46777,264665
12.47403,378219
12.48028,671284
12.48653,1122174
12.49280,1576622
12.49905,1705325
12.50530,1331413
12.51157,763095
12.51782,403361
12.52407,267515
12.53033,296914
12.53658,459232
12.54283,653036
12.54908,708420
12.55535,614244
12.56160,432641
12.56785,384591
12.57412,572122
12.58037,1033181
12.58662,1641652
12.59288,1996083
12.59913,1957306
12.60538,1774818
12.61165,2016496
12.61790,2899778
12.62415,3916711
12.63042,5242273
12.63667,6807424
12.64292,9326239
12.64918,1.270754E+07
12.65543,1.6801E+07
12.66168,2.192034E+07
12.66795,2.59891E+07
12.67420,2.701193E+07
12.68045,2.307225E+07
12.68672,1.208022E+07
12.69297,3207806
12.69922,760063
12.70548,376417
12.71173,327518
12.71798,338833
12.72425,377128
12.73050,446481
12.73675,535523
12.74302,581634
12.74927,550486
12.75552,485130
12.76177,439089
12.76803,390940
12.77428,345876
12.78053,304202
12.78680,286767
12.79305,275631
12.79930,269891
12.80557,263464
12.81182,252398
12.81807,267039
12.82433,295690
12.83058,327657
12.83683,317178
12.84310,290094
12.84935,266296
12.85560,263319
12.86187,275921
12.86812,294433
12.87437,355960
12.88063,549556
12.88688,972454
12.89313,1557207
12.89940,1905294
12.90565,1692495
12.91190,1138402
12.91817,679627
12.92442,453954
12.93067,310398
12.93693,235497
12.94318,194044
12.94943,173124
12.95570,163215
12.96195,154023
12.96820,140317
12.97447,139572
12.98072,141690
12.98697,153714
12.99322,173224
12.99948,196774
13.00573,225373
13.01198,254803
13.01825,289455
13.02450,358642
13.03075,468023
13.03702,555671
13.04327,546097
13.04952,397279
13.05578,252486
13.06203,177854
13.06828,166235
13.07455,205937
13.08080,265375
13.08705,318710
13.09332,336580
13.09957,344872
13.10582,350522
13.11208,335547
13.11833,306759
13.12458,278563
13.13085,254631
13.13710,250277
13.14335,252453
13.14962,255056
13.15587,254392
13.16212,241086
13.16838,220460
13.17463,194253
13.18088,161582
13.18715,143738
13.19340,141624
13.19965,135358
13.20590,140983
13.21217,143953
13.21842,159914
13.22467,171269
13.23093,196426
13.23718,220492
13.24343,231381
13.24970,219291
13.25595,223714
13.26220,235908
13.26847,235811
13.27472,207630
13.28097,187532
13.28723,177023
13.29348,183266
13.29973,193328
13.30600,204195
13.31225,198222
13.31850,175909
13.32477,157940
13.33102,147806
13.33727,155489
13.34353,172140
13.34978,187939
13.35603,195240
13.36230,185055
13.36855,163363
13.37480,145688
13.38107,138116
13.38732,127244
13.39357,121629
13.39983,124380
13.40608,126790
13.41233,145260
13.41860,156131
13.42485,172429
13.43110,206342
13.43735,239408
13.44362,268837
13.44987,249816
13.45612,208498
13.46238,172401
13.46863,156112
13.47488,151386
13.48115,148456
13.48740,156130
13.49365,159675
13.49992,159891
13.50617,159066
13.51242,167811
13.51868,182886
13.52493,193623
13.53118,215282
13.53745,288617
13.54370,454590
13.54995,787360
13.55622,1087422
13.56247,1101512
13.56872,808536
13.57498,463688
13.58123,253057
13.58748,186464
13.59375,181641
13.60000,187638
13.60625,195645
13.61252,206155
13.61877,220564
13.62502,220532
13.63128,207295
13.63753,190420
13.64378,167678
13.65003,149062
13.65630,144943
13.66255,144354
13.66880,148511
13.67507,159248
13.68132,172289
13.68757,184015
13.69383,182754
13.70008,173385
13.70633,163063
13.71260,158441
13.71885,151040
13.72510,152483
13.73137,151426
13.73762,150820
13.74387,171892
13.75013,244701
13.75638,407799
13.76263,680968
13.76890,840157
13.77515,750765
13.78140,469702
13.78767,275173
13.79392,207715
13.80017,217951
13.80643,293941
13.81268,511419
13.81893,961162
13.82520,1544140
13.83145,1855593
13.83770,1594304
13.84397,1029149
13.85022,597125
13.85647,422143
13.86273,330773
13.86898,269980
13.87523,263699
13.88148,390216
13.88775,768669
13.89400,1577009
13.90025,3300682
13.90652,5971489
13.91277,8378421
13.91902,8788491
13.92528,5997264
13.93153,2602661
13.93778,857595
13.94405,307297
13.95030,191498
13.95655,172042
13.96282,166073
13.96907,161561
13.97532,162046
13.98158,175496
13.98783,194595
13.99408,206548
14.00035,248228
14.00660,297984
14.01285,337139
14.01912,321367
14.02537,262845
14.03162,201540
14.03788,168397
14.04413,167161
14.05038,185389
14.05665,211705
14.06290,247440
14.06915,287445
14.07542,315951
14.08167,290110
14.08792,230387
14.09417,204284
14.10043,173420
14.10668,172046
14.11293,184101
14.11920,201220
14.12545,206036
14.13170,199194
14.13797,174846
14.14422,154879
14.15047,145629
14.15673,156406
14.16298,159309
14.16923,153993
14.17550,149347
14.18175,152362
14.18800,154504
14.19427,160533
14.20052,165275
14.20677,176295
14.21303,196801
14.21928,232411
14.22553,280406
14.23180,302820
14.23805,267372
14.24430,211766
14.25057,169973
14.25682,165658
14.26307,179912
14.26933,192936
14.27558,215429
14.28183,241406
14.28810,291509
14.29435,345518
14.30060,374726
14.30687,364596
14.31312,357319
14.31937,415615
14.32562,511877
14.33188,529118
14.33813,454856
14.34438,354640
14.35065,304858
14.35690,266636
14.36315,234281
14.36942,221616
14.37567,215405
14.38192,223350
14.38818,237968
14.39443,259770
14.40068,312067
14.40695,329946
14.41320,306828
14.41945,283517
14.42572,272646
14.43197,258705
14.43822,241370
14.44448,248250
14.45073,291073
14.45698,414811
14.46325,618011
14.46950,1008655
14.47575,1468608
14.48202,1735856
14.48827,1494720
14.49452,1032708
14.50078,606746
14.50703,353545
14.51328,271768
14.51955,259068
14.52580,283357
14.53205,291379
14.53830,256846
14.54457,226505
14.55082,224656
14.55707,225725
14.56333,256232
14.56958,290716
14.57583,300043
14.58210,273363
14.58835,230988
14.59460,206895
14.60087,213930
14.60712,227076
14.61337,242548
14.61963,239909
14.62588,228786
14.63213,233670
14.63840,285756
14.64465,374247
14.65090,408950
14.65717,407537
14.66342,365860
14.66967,321127
14.67593,287130
14.68218,288354
14.68843,310822
14.69470,390936
14.70095,494628
14.70720,541695
14.71347,584987
14.71972,753366
14.72597,1177595
14.73223,1821188
14.73848,2420005
14.74473,2433705
14.75098,2034079
14.75725,1393131
14.76350,881229
14.76975,497107
14.77602,303985
14.78227,213511
14.78852,215946
14.79478,250485
14.80103,262976
14.80728,280707
14.81355,280010
14.81980,242840
14.82605,198768
14.83232,157095
14.83857,141533
14.84482,133544
14.85108,140696
14.85733,150801
14.86358,161987
14.86985,171051
14.87610,177238
14.88235,175193
14.88862,173240
14.89487,154793
14.90112,152549
14.90738,159916
14.91363,187199
14.91988,216914
14.92615,250448
14.93240,271907
14.93865,267714
14.94492,240585
14.95117,221322
14.95742,216783
14.96368,229608
14.96993,256029
14.97618,287478
14.98243,300790
14.98870,300039
14.99495,284320
15.00120,262465
15.00747,245713
15.01372,233348
15.01997,227051
15.02623,225811
15.03248,230630
15.03873,248516
15.04500,271168
15.05125,296461
15.05750,305849
15.06377,322182
15.07002,307868
15.07627,309589
15.08253,319675
15.08878,353518
15.09503,412434
15.10130,458850
15.10755,476893
15.11380,515643
15.12007,607758
15.12632,752027
15.13257,915028
15.13883,1080011
15.14508,1233625
15.15133,1365415
15.15760,1850799
15.16385,3360169
15.17010,5503473
15.17637,7487047
15.18262,6546491
15.18887,3907918
15.19512,1770844
15.20138,696134
15.20763,346138
15.21388,244544
15.22015,212138
15.22640,197443
15.23265,188332
15.23892,186575
15.24517,194655
15.25142,207728
15.25768,211758
15.26393,217386
15.27018,219199
15.27645,221368
15.28270,217370
15.28895,209653
15.29522,216191
15.30147,210048
15.30772,201630
15.31398,200742
15.32023,222676
15.32648,255800
15.33275,268253
15.33900,253329
15.34525,224272
15.35152,211206
15.35777,231528
15.36402,244624
15.37028,250216
15.37653,226653
15.38278,200325
15.38905,191656
15.39530,187945
15.40155,181294
15.40780,184789
15.41407,185149
15.42032,186321
15.42657,203368
15.43283,229213
15.43908,266007
15.44533,315849
15.45160,388944
15.45785,424346
15.46410,389185
15.47037,316979
15.47662,254793
15.48287,211830
15.48913,189382
15.49538,201620
15.50163,232416
15.50790,306096
15.51415,451317
15.52040,792514
15.52667,1458187
15.53292,2652794
15.53917,4597274
15.54543,7768031
15.55168,1.159113E+07
15.55793,1.206272E+07
15.56420,7839814
15.57045,3184237
15.57670,948517
15.58297,412865
15.58922,331672
15.59547,331931
15.60173,338498
15.60798,312683
15.61423,284910
15.62050,262889
15.62675,281972
15.63300,320919
15.63925,327869
15.64552,296180
15.65177,251606
15.65802,224672
15.66428,220193
15.67053,231369
15.67678,254529
15.68305,273488
15.68930,287924
15.69555,305503
15.70182,323422
15.70807,310037
15.71432,268720
15.72058,224948
15.72683,206199
15.73308,217032
15.73935,240134
15.74560,251252
15.75185,253794
15.75812,221976
15.76437,191695
15.77062,169246
15.77688,163453
15.78313,173717
15.78938,199383
15.79565,214245
15.80190,217534
15.80815,189250
15.81442,174223
15.82067,171640
15.82692,182434
15.83318,219525
15.83943,283104
15.84568,342067
15.85193,343730
15.85820,291857
15.86445,229202
15.87070,201711
15.87697,199639
15.88322,190809
15.88947,186337
15.89573,178424
15.90198,168793
15.90823,165228
15.91450,159138
15.92075,163196
15.92700,164821
15.93327,162561
15.93952,172317
15.94577,177741
15.95203,197038
15.95828,233270
15.96453,281690
15.97080,290698
15.97705,260607
15.98330,202741
15.98957,159883
15.99582,144321
16.00207,170279
16.00833,228819
16.01458,295885
16.02083,373488
16.02710,493485
16.03335,742947
16.03960,1159420
16.04587,1652251
16.05212,2032373
16.05837,2176700
16.06462,1813926
16.07088,1745869
16.07713,2447328
16.08338,3165357
16.08965,3304213
16.09590,2630056
16.10215,1750714
16.10842,1156143
16.11467,885857
16.12092,894189
16.12718,946511
16.13343,877515
16.13968,659954
16.14595,461320
16.15220,378154
16.15845,389469
16.16472,435332
16.17097,432345
16.17722,388321
16.18348,354233
16.18973,403041
16.19598,461834
16.20225,462599
16.20850,376330
16.21475,260740
16.22102,193629
16.22727,166355
16.23352,160036
16.23978,175424
16.24603,195486
16.25228,216495
16.25855,253482
16.26480,256098
16.27105,238602
16.27732,197282
16.28357,165534
16.28982,154787
16.29607,140740
16.30233,138838
16.30858,140124
16.31483,147735
16.32110,156997
16.32735,171935
16.33360,186238
16.33987,190011
16.34612,205095
16.35237,201280
16.35863,193513
16.36488,185438
16.37113,170540
16.37740,158745
16.38365,155786
16.38990,155439
16.39617,160135
16.40242,167709
16.40867,177854
16.41493,191150
16.42118,216178
16.42743,258559
16.43370,338305
16.43995,529089
16.44620,805863
16.45247,965630
16.45872,896159
16.46497,764807
16.47123,647669
16.47748,559880
16.48373,480545
16.49000,413525
16.49625,381124
16.50250,372848
16.50875,404174
16.51502,486602
16.52127,605441
16.52752,678141
16.53378,679150
16.54003,632550
16.54628,600699
16.55255,552297
16.55880,478680
16.56505,421136
16.57132,366652
16.57757,338052
16.58382,322248
16.59008,313935
16.59633,319976
16.60258,317459
16.60885,325521
16.61510,357970
16.62135,369175
16.62762,395698
16.63387,402975
16.64012,420702
16.64638,453272
16.65263,469341
16.65888,452897
16.66515,397168
16.67140,336829
16.67765,323074
16.68392,311928
16.69017,316438
16.69642,299855
16.70268,275688
16.70893,252938
16.71518,238615
16.72145,249811
16.72770,290886
16.73395,346040
16.74020,458327
16.74647,724925
16.75272,1232442
16.75897,2360721
16.76523,4734065
16.77148,9823464
16.77773,1.735871E+07
16.78400,2.313301E+07
16.79025,2.554833E+07
16.79650,2.106094E+07
16.80277,1.307913E+07
16.80902,6990873
16.81527,4846206
16.82153,5120446
16.82778,6840354
16.83403,1.005547E+07
16.84030,1.309467E+07
16.84655,1.487705E+07
16.85280,1.476691E+07
16.85907,1.250404E+07
16.86532,8868152
16.87157,6735725
16.87783,7305084
16.88408,1.044603E+07
16.89033,1.469888E+07
16.89660,1.751513E+07
16.90285,1.707476E+07
16.90910,1.350405E+07
16.91537,8893348
16.92162,5483948
16.92787,3921331
16.93413,3737468
16.94038,3791614
16.94663,3765150
16.95288,3653811
16.95915,3741225
16.96540,3722170
16.97165,3160283
16.97792,2170659
16.98417,1302063
16.99042,864479
16.99668,824006
17.00293,1342552
17.00918,3109430
17.01545,7353658
17.02170,1.4462E+07
17.02795,2.212189E+07
17.03422,3.149047E+07
17.04047,3.90417E+07
17.04672,4.549197E+07
17.05298,5.031474E+07
17.05923,5.276936E+07
17.06548,5.309827E+07
17.07175,5.112452E+07
17.07800,4.765151E+07
17.08425,4.341773E+07
17.09052,3.998313E+07
17.09677,3.708957E+07
17.10302,3.564596E+07
17.10928,3.475284E+07
17.11553,3.62379E+07
17.12178,4.950796E+07
17.12805,1.766863E+07
17.13430,1.222616E+07
17.14055,1.25411E+07
17.14682,1.202854E+07
17.15307,1.388561E+07
17.15932,2.160934E+07
17.16558,3.346645E+07
17.17183,4.596912E+07
17.17808,5.215707E+07
17.18433,5.373887E+07
17.19060,5.335324E+07
17.19685,4.474949E+07
17.20310,1.385065E+07
17.20937,4227151
17.21562,4745213
17.22187,6407965
17.22813,8069457
17.23438,1.115045E+07
17.24063,1.793894E+07
17.24690,2.879992E+07
17.25315,4.207282E+07
17.25940,5.179894E+07
17.26567,5.496826E+07
17.27192,5.436617E+07
17.27817,4.90223E+07
17.28443,2.403491E+07
17.29068,8790295
17.29693,9712964
17.30320,1.395244E+07
17.30945,1.482861E+07
17.31570,1.094257E+07
17.32197,5535354
17.32822,2328377
17.33447,1120552
17.34073,814567
17.34698,737094
17.35323,687240
17.35950,631906
17.36575,607565
17.37200,613953
17.37827,672578
17.38452,765435
17.39077,802990
17.39702,914651
17.40328,1163927
17.40953,1617161
17.41578,2183465
17.42205,2545334
17.42830,2456040
17.43455,2034982
17.44082,1873866
17.44707,2356089
17.45332,3405584
17.45958,4274713
17.46583,4278451
17.47208,3170997
17.47835,2070510
17.48460,1575795
17.49085,1451590
17.49712,1269207
17.50337,989941
17.50962,810141
17.51588,831394
17.52213,887435
17.52838,821115
17.53465,672811
17.54090,552014
17.54715,543648
17.55342,709421
17.55967,1174742
17.56592,2486389
17.57218,5321602
17.57843,9997351
17.58468,1.334863E+07
17.59095,1.230113E+07
17.59720,7335864
17.60345,3368693
17.60972,1431791
17.61597,1116517
17.62222,1419469
17.62847,1615747
17.63473,1366750
17.64098,898776
17.64723,582288
17.65350,442464
17.65975,380598
17.66600,363371
17.67227,364541
17.67852,381767
17.68477,415390
17.69103,450787
17.69728,468934
17.70353,454595
17.70980,428092
17.71605,381234
17.72230,349341
17.72857,336754
17.73482,363611
17.74107,411820
17.74733,458772
17.75358,469085
17.75983,454236
17.76610,486228
17.77235,588794
17.77860,775423
17.78487,1000428
17.79112,1354132
17.79737,1741143
17.80363,2038285
17.80988,2026685
17.81613,1718667
17.82240,1316713
17.82865,997404
17.83490,919989
17.84115,833912
17.84742,854590
17.85367,1093297
17.85992,2370422
17.86618,5535115
17.87243,1.043107E+07
17.87868,1.581573E+07
17.88495,1.512768E+07
17.89120,9573890
17.89745,3808760
17.90372,1357729
17.90997,647384
17.91622,470761
17.92248,436113
17.92873,411236
17.93498,403589
17.94125,424192
17.94750,438806
17.95375,474989
17.96002,498028
17.96627,492804
17.97252,440491
17.97878,388041
17.98503,363376
17.99128,385850
17.99755,430385
18.00380,529084
18.01005,597079
18.01632,612719
18.02257,538214
18.02882,481036
18.03508,437192
18.04133,411423
18.04758,387495
18.05383,345791
18.06010,306381
18.06635,279345
18.07260,271256
18.07887,277199
18.08512,305956
18.09137,334921
18.09763,369289
18.10388,391683
18.11013,403432
18.11640,456042
18.12265,694535
18.12890,1575804
18.13517,3481736
18.14142,6065121
18.14767,7413460
18.15393,6519392
18.16018,3738962
18.16643,1548288
18.17270,646939
18.17895,416043
18.18520,333186
18.19147,304807
18.19772,309243
18.20397,345940
18.21023,443078
18.21648,538917
18.22273,601308
18.22900,517103
18.23525,425395
18.24150,341821
18.24777,309747
18.25402,312305
18.26027,331064
18.26653,374865
18.27278,472975
18.27903,633645
18.28528,949866
18.29155,1620890
18.29780,2653101
18.30405,3390687
18.31032,3053588
18.31657,1909103
18.32282,917675
18.32908,432917
18.33533,260394
18.34158,212813
18.34785,200604
18.35410,201361
18.36035,200148
18.36662,207186
18.37287,221499
18.37912,271666
18.38538,322736
18.39163,382524
18.39788,386123
18.40415,338320
18.41040,280147
18.41665,243346
18.42292,218391
18.42917,206376
18.43542,196461
18.44168,192510
18.44793,197521
18.45418,197507
18.46045,208632
18.46670,222386
18.47295,232689
18.47922,227736
18.48547,211619
18.49172,203081
18.49797,201005
18.50423,197758
18.51048,199069
18.51673,204695
18.52300,205827
18.52925,214237
18.53550,213899
18.54177,213441
18.54802,214279
18.55427,216026
18.56053,206927
18.56678,206101
18.57303,207626
18.57930,190933
18.58555,186919
18.59180,188146
18.59807,192088
18.60432,198840
18.61057,205422
18.61683,207264
18.62308,209192
18.62933,221239
18.63560,240087
18.64185,258294
18.64810,274534
18.65437,268418
18.66062,241535
18.66687,222579
18.67313,213537
18.67938,216523
18.68563,212762
18.69190,205432
18.69815,203622
18.70440,222476
18.71065,256304
18.71692,292989
18.72317,288999
18.72942,248858
18.73568,209123
18.74193,192925
18.74818,187128
18.75445,177232
18.76070,176212
18.76695,178018
18.77322,182021
18.77947,184449
18.78572,181958
18.79198,181733
18.79823,185869
18.80448,189418
18.81075,201872
18.81700,205546
18.82325,199807
18.82952,204477
18.83577,206121
18.84202,243213
18.84828,344349
18.85453,625556
18.86078,1516608
18.86705,3729047
18.87330,8208977
18.87955,1.356107E+07
18.88582,1.861396E+07
18.89207,2.056255E+07
18.89832,1.82462E+07
18.90458,1.327575E+07
18.91083,8425636
18.91708,4537735
18.92335,1735276
18.92960,685087
18.93585,424246
18.94210,393225
18.94837,367797
18.95462,313670
18.96087,273698
18.96713,229143
18.97338,214406
18.97963,208726
18.98590,209669
18.99215,206904
18.99840,211410
19.00467,228765
19.01092,243000
19.01717,241670
19.02343,234292
19.02968,229904
19.03593,238821
19.04220,249650
19.04845,260827
19.05470,253683
19.06097,232148
19.06722,199447
19.07347,187341
19.07973,180056
19.08598,184133
19.09223,187478
19.09850,190591
19.10475,202248
19.11100,206705
19.11727,204029
19.12352,204234
19.12977,216641
19.13603,231498
19.14228,217480
19.14853,211996
19.15478,202532
19.16105,200189
19.16730,195176
19.17355,183732
19.17982,185864
19.18607,188872
19.19232,185322
19.19858,182918
19.20483,179564
19.21108,163196
19.21735,155342
19.22360,151580
19.22985,153404
19.23612,162282
19.24237,160152
19.24862,165540
19.25488,167544
19.26113,160125
19.26738,161871
19.27365,158043
19.27990,164299
19.28615,171145
19.29242,171506
19.29867,167798
19.30492,158741
19.31118,150603
19.31743,141098
19.32368,144873
19.32995,149514
19.33620,167803
19.34245,189265
19.34872,200313
19.35497,206514
19.36122,205008
19.36747,208291
19.37373,203957
19.37998,200648
19.38623,204316
19.39250,215666
19.39875,225072
19.40500,232340
19.41127,205579
19.41752,177942
19.42377,158646
19.43003,149261
19.43628,147973
19.44253,147962
19.44880,148172
19.45505,147742
19.46130,143672
19.46757,140683
19.47382,147538
19.48007,146497
19.48633,149819
19.49258,151521
19.49883,159461
19.50510,172586
19.51135,198586
19.51760,218809
19.52387,217987
19.53012,193284
19.53637,178733
19.54263,172111
19.54888,169215
19.55513,174075
19.56140,162555
19.56765,161526
19.57390,148769
19.58017,148001
19.58642,150683
19.59267,149378
19.59892,145904
19.60518,141536
19.61143,136014
19.61768,146438
19.62395,154721
19.63020,178364
19.63645,195682
19.64272,192719
19.64897,174354
19.65522,156356
19.66148,162686
19.66773,197213
19.67398,238029
19.68025,268731
19.68650,299118
19.69275,280783
19.69902,265773
19.70527,252673
19.71152,250215
19.71778,227858
19.72403,199256
19.73028,175963
19.73655,164724
19.74280,169923
19.74905,170611
19.75532,162106
19.76157,165237
19.76782,172955
19.77408,172130
19.78033,166190
19.78658,159435
19.79285,158490
19.79910,160326
19.80535,162298
19.81162,149603
19.81787,148867
19.82412,147641
19.83037,140674
19.83663,139374
19.84288,144212
19.84913,151173
19.85540,172814
19.86165,182442
19.86790,190965
19.87417,186312
19.88042,172450
19.88667,165927
19.89293,188510
19.89918,332153
19.90543,863138
19.91170,2538749
19.91795,5702069
19.92420,1.000524E+07
19.93047,1.182618E+07
19.93672,9604674
19.94297,5252497
19.94923,1953854
19.95548,579180
19.96173,283469
19.96800,246863
19.97425,244304
19.98050,246564
19.98677,226389
19.99302,204229
19.99927,178465
20.00553,166229
20.01178,156581
20.01803,159968
20.02430,155399
20.03055,156300
20.03680,155319
20.04305,150501
20.04932,154694
20.05557,155745
20.06182,153672
20.06808,150065
20.07433,149650
20.08058,160719
20.08685,180651
20.09310,200791
20.09935,212384
20.10562,193041
20.11187,173309
20.11812,156196
20.12438,141785
20.13063,149013
20.13688,144128
20.14315,140429
20.14940,139676
20.15565,148340
20.16192,157489
20.16817,161720
20.17442,160903
20.18068,156992
20.18693,152927
20.19318,153414
20.19945,158922
20.20570,156842
20.21195,174378
20.21822,199257
20.22447,227171
20.23072,265691
20.23698,262814
20.24323,242935
20.24948,208244
20.25575,178420
20.26200,170172
20.26825,171011
20.27450,179462
20.28077,195136
20.28702,262823
20.29327,394720
20.29953,579909
20.30578,712691
20.31203,671971
20.31830,483187
20.32455,320494
20.33080,234428
20.33707,195031
20.34332,193444
20.34957,197614
20.35583,187967
20.36208,175476
20.36833,170910
20.37460,172994
20.38085,170189
20.38710,170752
20.39337,164314
20.39962,158159
20.40587,160197
20.41213,174418
20.41838,218039
20.42463,343630
20.43090,616366
20.43715,1025391
20.44340,1311870
20.44967,1263935
20.45592,862320
20.46217,522057
20.46843,389189
20.47468,385693
20.48093,450585
20.48718,496257
20.49345,444663
20.49970,338043
20.50595,263667
20.51222,220520
20.51847,213736
20.52472,212140
20.53098,206875
20.53723,211610
20.54348,223428
20.54975,248464
20.55600,263601
20.56225,253121
20.56852,261434
20.57477,316927
20.58102,492827
20.58728,731916
20.59353,920800
20.59978,809552
20.60605,572743
20.61230,356908
20.61855,261288
20.62482,231136
20.63107,228752
20.63732,245140
20.64358,230476
20.64983,207780
20.65608,195498
20.66235,194080
20.66860,193198
20.67485,185603
20.68112,179898
20.68737,176581
20.69362,172349
20.69987,184061
20.70613,233115
20.71238,346790
20.71863,509662
20.72490,605476
20.73115,573794
20.73740,444269
20.74367,335806
20.74992,300486
20.75617,384318
20.76243,527936
20.76868,665446
20.77493,678654
20.78120,536569
20.78745,402163
20.79370,291944
20.79997,240194
20.80622,209198
20.81247,207257
20.81873,195518
20.82498,182140
20.83123,176865
20.83750,174572
20.84375,176007
20.85000,182107
20.85627,185007
20.86252,193046
20.86877,183948
20.87503,175689
20.88128,170402
20.88753,164733
20.89380,165722
20.90005,168482
20.90630,165426
20.91257,174986
20.91882,188356
20.92507,239242
20.93132,369668
20.93758,653170
20.94383,965810
20.95008,1152120
20.95635,983031
20.96260,639838
20.96885,399721
20.97512,287238
20.98137,238672
20.98762,206324
20.99388,193603
21.00013,201093
21.00638,194878
21.01265,197321
21.01890,197958
21.02515,199870
21.03142,210219
21.03767,208728
21.04392,203008
21.05018,201163
21.05643,187364
21.06268,175101
21.06895,169241
21.07520,181472
21.08145,174584
21.08772,180531
21.09397,174322
21.10022,175524
21.10648,192284
21.11273,224148
21.11898,240929
21.12525,239896
21.13150,207165
21.13775,184183
21.14400,173377
21.15027,164343
21.15652,162553
21.16277,162421
21.16903,158472
21.17528,161309
21.18153,165326
21.18780,178108
21.19405,185715
21.20030,198183
21.20657,212295
21.21282,232173
21.21907,225562
21.22533,201075
21.23158,182518
21.23783,171133
21.24410,166402
21.25035,163482
21.25660,160450
21.26287,154806
21.26912,154885
21.27537,158499
21.28163,167669
21.28788,176272
21.29413,180816
21.30040,176745
21.30665,173077
21.31290,181756
21.31917,200326
21.32542,232653
21.33167,244092
21.33793,212013
21.34418,177799
21.35043,155800
21.35668,158837
21.36295,167930
21.36920,179874
21.37545,181364
21.38172,179731
21.38797,166183
21.39422,158383
21.40048,153616
21.40673,162311
21.41298,183898
21.41925,216544
21.42550,249973
21.43175,239778
21.43802,233299
21.44427,197362
21.45052,194743
21.45678,202012
21.46303,226587
21.46928,234682
21.47555,214583
21.48180,184616
21.48805,160889
21.49432,150468
21.50057,146248
21.50682,135039
21.51308,134715
21.51933,136116
21.52558,140851
21.53185,143114
21.53810,153944
21.54435,151821
21.55062,145663
21.55687,156156
21.56312,181129
21.56938,217047
21.57563,246612
21.58188,244229
21.58813,219249
21.59440,190832
21.60065,172741
21.60690,164420
21.61317,158081
21.61942,143616
21.62567,133599
21.63193,136006
21.63818,132927
21.64443,132224
21.65070,133586
21.65695,135537
21.66320,138615
21.66947,144392
21.67572,143737
21.68197,154920
21.68823,147078
21.69448,141770
21.70073,132388
21.70700,133841
21.71325,134782
21.71950,145834
21.72577,156940
21.73202,161299
21.73827,154764
21.74453,151490
21.75078,145928
21.75703,143491
21.76330,136068
21.76955,140371
21.77580,141013
21.78207,143653
21.78832,149212
21.79457,164422
21.80082,185132
21.80708,227998
21.81333,255325
21.81958,240208
21.82585,202330
21.83210,171709
21.83835,153006
21.84462,146946
21.85087,141469
21.85712,140268
21.86338,140469
21.86963,137486
21.87588,138261
21.88215,136017
21.88840,142243
21.89465,159265
21.90092,195149
21.90717,240895
21.91342,275354
21.91968,256981
21.92593,220618
21.93218,203536
21.93845,200694
21.94470,191301
21.95095,174439
21.95722,155864
21.96347,156044
21.96972,166870
21.97598,175604
21.98223,182620
21.98848,178352
21.99475,172483
22.00100,171303
22.00725,182626
22.01350,188064
22.01977,181723
22.02602,183154
22.03227,189149
22.03853,194478
22.04478,210031
22.05103,218085
22.05730,228503
22.06355,241113
22.06980,274724
22.07607,285051
22.08232,280080
22.08857,234264
22.09483,197765
22.10108,179386
22.10733,171580
22.11360,171194
22.11985,177340
22.12610,177419
22.13237,170259
22.13862,160630
22.14487,153537
22.15113,157241
22.15738,160330
22.16363,164962
22.16990,163836
22.17615,164873
22.18240,158408
22.18867,159863
22.19492,156986
22.20117,153282
22.20743,160110
22.21368,166207
22.21993,170489
22.22620,175155
22.23245,200904
22.23870,259135
22.24495,332461
22.25122,384015
22.25747,416526
22.26372,390617
22.26998,348864
22.27623,314585
22.28248,289008
22.28875,273587
22.29500,253071
22.30125,229392
22.30752,201985
22.31377,180937
22.32002,164775
22.32628,164915
22.33253,165443
22.33878,192760
22.34505,292700
22.35130,562670
22.35755,1120807
22.36382,1621598
22.37007,1741981
22.37632,1363240
22.38258,778860
22.38883,386663
22.39508,229552
22.40135,187860
22.40760,181409
22.41385,176015
22.42012,187838
22.42637,200182
22.43262,204455
22.43888,213112
22.44513,253228
22.45138,314134
22.45763,371624
22.46390,400884
22.47015,361853
22.47640,296778
22.48267,255207
22.48892,233587
22.49517,224539
22.50143,220624
22.50768,203374
22.51393,198295
22.52020,200283
22.52645,211809
22.53270,271478
22.53897,341501
22.54522,440064
22.55147,483851
22.55773,433373
22.56398,339356
22.57023,259684
22.57650,216137
22.58275,194825
22.58900,177446
22.59527,170869
22.60152,168641
22.60777,167457
22.61403,167343
22.62028,177423
22.62653,201955
22.63280,281932
22.63905,356492
22.64530,392881
22.65157,362455
22.65782,295736
22.66407,243097
22.67033,214199
22.67658,199539
22.68283,186758
22.68908,179997
22.69535,173792
22.70160,172829
22.70785,176145
22.71412,175713
22.72037,175206
22.72662,176346
22.73288,169289
22.73913,166570
22.74538,165744
22.75165,176944
22.75790,188632
22.76415,215387
22.77042,252944
22.77667,391202
22.78292,893449
22.78918,2510808
22.79543,5598766
22.80168,8949898
22.80795,1.043854E+07
22.81420,8162562
22.82045,4305372
22.82672,1593071
22.83297,592328
22.83922,337055
22.84548,255885
22.85173,234253
22.85798,220717
22.86425,212317
22.87050,206890
22.87675,206889
22.88302,196720
22.88927,189340
22.89552,182291
22.90177,184779
22.90803,179945
22.91428,175498
22.92053,171606
22.92680,173443
22.93305,172643
22.93930,174969
22.94557,177244
22.95182,179730
22.95807,183987
22.96433,194689
22.97058,202403
22.97683,220854
22.98310,222043
22.98935,200897
22.99560,188797
23.00187,175614
23.00812,172010
23.01437,165832
23.02063,171543
23.02688,164889
23.03313,166723
23.03940,166039
23.04565,167416
23.05190,171583
23.05817,172911
23.06442,170680
23.07067,173437
23.07693,178873
23.08318,183903
23.08943,177382
23.09570,175961
23.10195,174744
23.10820,169281
23.11447,166765
23.12072,164334
23.12697,158849
23.13322,159794
23.13948,159930
23.14573,156719
23.15198,156529
23.15825,157028
23.16450,155056
23.17075,155125
23.17702,158144
23.18327,160527
23.18952,161217
23.19578,165728
23.20203,169961
23.20828,163364
23.21455,168106
23.22080,168282
23.22705,173449
23.23332,188845
23.23957,203653
23.24582,212367
23.25208,208875
23.25833,189877
23.26458,175436
23.27085,166568
23.27710,168475
23.28335,163497
23.28962,160427
23.29587,163063
23.30212,166644
23.30838,166840
23.31463,168458
23.32088,165551
23.32715,163520
23.33340,161775
23.33965,162873
23.34590,163224
23.35217,161319
23.35842,170091
23.36467,178920
23.37093,187752
23.37718,203597
23.38343,212576
23.38970,218284
23.39595,209793
23.40220,194049
23.40847,180711
23.41472,174179
23.42097,174771
23.42723,169974
23.43348,168688
23.43973,172340
23.44600,178411
23.45225,177342
23.45850,176888
23.46477,182931
23.47102,191672
23.47727,203874
23.48353,209989
23.48978,215706
23.49603,224416
23.50230,249169
23.50855,291191
23.51480,342289
23.52107,365137
23.52732,313197
23.53357,272381
23.53983,225281
23.54608,205407
23.55233,204286
23.55860,211810
23.56485,231233
23.57110,253870
23.57735,285980
23.58362,307463
23.58987,325495
23.59612,323868
23.60238,306210
23.60863,277916
23.61488,255463
23.62115,233890
23.62740,217233
23.63365,205313
23.63992,199674
23.64617,189636
23.65242,182074
23.65868,181754
23.66493,186577
23.67118,188703
23.67745,188927
23.68370,192688
23.68995,191305
23.69622,191021
23.70247,195173
23.70872,205546
23.71498,222937
23.72123,261415
23.72748,294522
23.73375,300741
23.74000,270395
23.74625,250475
23.75252,220382
23.75877,210956
23.76502,204736
23.77128,204578
23.77753,204244
23.78378,207894
23.79003,200595
23.79630,204662
23.80255,205165
23.80880,199108
23.81507,200343
23.82132,201328
23.82757,202006
23.83383,203723
23.84008,208907
23.84633,206195
23.85260,209934
23.85885,207858
23.86510,211142
23.87137,212856
23.87762,214319
23.88387,215539
23.89013,219951
23.89638,217138
23.90263,216584
23.90890,217772
23.91515,218093
23.92140,224671
23.92767,227686
23.93392,234950
23.94017,260301
23.94643,360829
23.95268,710862
23.95893,1306039
23.96520,1880888
23.97145,1988560
23.97770,1661748
23.98397,1226906
23.99022,927276
23.99647,772425
24.00272,609242
24.00898,460254
24.01523,355236
24.02148,295517
24.02775,267175
24.03400,261041
24.04025,262934
24.04652,286413
24.05277,362665
24.05902,531378
24.06528,749460
24.07153,900773
24.07778,905374
24.08405,717978
24.09030,531613
24.09655,414761
24.10282,370030
24.10907,362738
24.11532,357202
24.12158,348209
24.12783,316757
24.13408,299584
24.14035,284529
24.14660,275671
24.15285,286919
24.15912,309690
24.16537,352260
24.17162,406556
24.17788,491528
24.18413,641144
24.19038,1057888
24.19665,2299716
24.20290,5366217
24.20915,1.189147E+07
24.21542,2.064073E+07
24.22167,3.214441E+07
24.22792,3.911385E+07
24.23417,4.382592E+07
24.24043,4.577061E+07
24.24668,4.559917E+07
24.25293,3.802142E+07
24.25920,1.540579E+07
24.26545,4777260
24.27170,2897948
24.27797,2377024
24.28422,2149542
24.29047,1994933
24.29673,1891574
24.30298,1827129
24.30923,1764263
24.31550,1815018
24.32175,1853576
24.32800,1920877
24.33427,2067008
24.34052,2164624
24.34677,2253425
24.35303,2302646
24.35928,2369831
24.36553,2421005
24.37180,2437123
24.37805,2305267
24.38430,2235443
24.39057,2147037
24.39682,2027695
24.40307,1930180
24.40933,1806142
24.41558,1752860
24.42183,1628344
24.42810,1570411
24.43435,1512435
24.44060,1427179
24.44685,1315412
24.45312,1266839
24.45937,1221563
24.46562,1166604
24.47188,1108351
24.47813,1063928
24.48438,1041615
24.49065,1006277
24.49690,988674
24.50315,971574
24.50942,954786
24.51567,905176
24.52192,867222
24.52818,862943
24.53443,820636
24.54068,801200
24.54695,758149
24.55320,707501
24.55945,691317
24.56572,687450
24.57197,685391
24.57822,677711
24.58448,669687
24.59073,624984
24.59698,583786
24.60325,521180
24.60950,475158
24.61575,451864
24.62202,427567
24.62827,421071
24.63452,432077
24.64078,441206
24.64703,458674
24.65328,462241
24.65953,417484
24.66580,384010
24.67205,332365
24.67830,303861
24.68457,291812
24.69082,283084
24.69707,273906
24.70333,266155
24.70958,250245
24.71583,256266
24.72210,247331
24.72835,251288
24.73460,250801
24.74087,258001
24.74712,252294
24.75337,247876
24.75963,253946
24.76588,266054
24.77213,264382
24.77840,251872
24.78465,232379
24.79090,213325
24.79717,198909
24.80342,194033
24.80967,190332
24.81593,184257
24.82218,181104
24.82843,176805
24.83470,178753
24.84095,176395
24.84720,180420
24.85347,188020
24.85972,187673
24.86597,213380
24.87223,272557
24.87848,391654
24.88473,528905
24.89098,619478
24.89725,572388
24.90350,450617
24.90975,340823
24.91602,302692
24.92227,288166
24.92852,277337
24.93478,247984
24.94103,225122
24.94728,227463
24.95355,225348
24.95980,226082
24.96605,210269
24.97232,193250
24.97857,187647
24.98482,176999
24.99108,170167
24.99733,166391
25.00358,164487
25.00985,163700
25.01610,160042
25.02235,157301
25.02862,160502
25.03487,161023
25.04112,163156
25.04738,162455
25.05363,154523
25.05988,156642
25.06615,158961
25.07240,155103
25.07865,159160
25.08492,157961
25.09117,155686
25.09742,155681
25.10367,150414
25.10993,148619
25.11618,155243
25.12243,153466
25.12870,153239
25.13495,149997
25.14120,150730
25.14747,150550
25.15372,154662
25.15997,157360
25.16623,173960
25.17248,201101
25.17873,243740
25.18500,269138
25.19125,269457
25.19750,249502
25.20377,209444
25.21002,176983
25.21627,167271
25.22253,162019
25.22878,155621
25.23503,153014
25.24130,151726
25.24755,150310
25.25380,153253
25.26007,153982
25.26632,156041
25.27257,167937
25.27883,187374
25.28508,229901
25.29133,264189
25.29760,280854
25.30385,260080
25.31010,217060
25.31637,187342
25.32262,162964
25.32887,166427
25.33512,163521
25.34138,155120
25.34763,162647
25.35388,153906
25.36015,153942
25.36640,155252
25.37265,159157
25.37892,167390
25.38517,216986
25.39142,368301
25.39768,693173
25.40393,1117352
25.41018,1352528
25.41645,1242998
25.42270,863985
25.42895,542820
25.43522,365252
25.44147,282430
25.44772,239699
25.45398,206938
25.46023,200751
25.46648,187742
25.47275,187765
25.47900,189587
25.48525,205633
25.49152,232616
25.49777,256469
25.50402,271947
25.51028,265509
25.51653,236135
25.52278,240840
25.52905,278295
25.53530,342215
25.54155,398185
25.54780,393806
25.55407,335995
25.56032,249594
25.56657,202406
25.57283,177236
25.57908,166970
25.58533,161996
25.59160,170558
25.59785,175855
25.60410,192021
25.61037,190155
25.61662,182482
25.62287,171085
25.62913,164931
25.63538,154786
25.64163,153207
25.64790,153753
25.65415,153940
25.66040,148900
25.66667,153028
25.67292,147648
25.67917,154621
25.68543,157537
25.69168,154861
25.69793,153913
25.70420,147685
25.71045,146966
25.71670,148558
25.72297,154294
25.72922,168388
25.73547,177855
25.74173,186175
25.74798,183377
25.75423,180254
25.76050,161465
25.76675,160093
25.77300,155693
25.77925,154214
25.78552,153535
25.79177,148617
25.79802,144590
25.80428,140601
25.81053,140483
25.81678,143841
25.82305,144255
25.82930,137754
25.83555,142430
25.84182,143946
25.84807,145292
25.85432,141853
25.86058,153634
25.86683,157295
25.87308,153628
25.87935,145228
25.88560,145009
25.89185,140325
25.89812,139381
25.90437,139187
25.91062,144409
25.91688,149478
25.92313,149881
25.92938,157229
25.93565,164421
25.94190,164862
25.94815,150259
25.95442,148426
25.96067,143817
25.96692,139506
25.97318,138263
25.97943,142138
25.98568,138526
25.99193,139877
25.99820,137589
26.00445,142363
26.01070,140516
26.01697,141351
26.02322,141043
26.02947,143798
26.03573,145019
26.04198,143918
26.04823,146837
26.05450,146268
26.06075,137416
26.06700,137489
26.07327,137061
26.07952,141461
26.08577,135115
26.09203,134645
26.09828,141337
26.10453,134950
26.11080,137654
26.11705,135427
26.12330,138683
26.12957,136498
26.13582,141109
26.14207,136755
26.14833,136817
26.15458,136772
26.16083,140340
26.16710,144359
26.17335,144210
26.17960,141578
26.18587,143954
26.19212,139185
26.19837,139920
26.20463,137554
26.21088,142810
26.21713,145822
26.22338,141937
26.22965,142304
26.23590,145798
26.24215,145128
26.24842,143370
26.25467,142582
26.26092,145947
26.26718,148100
26.27343,146531
26.27968,143412
26.28595,142629
26.29220,142342
26.29845,141039
26.30472,141048
26.31097,143016
26.31722,144151
26.32348,147147
26.32973,140998
26.33598,142539
26.34225,146961
26.34850,149635
26.35475,148775
26.36102,154523
26.36727,156927
26.37352,157173
26.37978,154337
26.38603,150864
26.39228,153953
26.39855,156496
26.40480,153837
26.41105,160535
26.41732,166218
26.42357,163860
26.42982,157166
26.43607,152654
26.44233,152117
26.44858,150821
26.45483,155733
26.46110,156812
26.46735,156286
26.47360,159150
26.47987,160936
26.48612,164075
26.49237,161441
26.49863,160331
26.50488,160957
26.51113,163810
26.51740,168378
26.52365,179105
26.52990,188046
26.53617,189921
26.54242,184799
26.54867,173048
26.55493,169219
26.56118,161685
26.56743,165299
26.57370,161418
26.57995,167654
26.58620,166022
26.59247,171504
26.59872,171259
26.60497,187769
26.61123,196045
26.61748,203123
26.62373,191785
26.63000,184201
26.63625,187019
26.64250,227513
26.64875,354507
26.65502,599781
26.66127,1074739
26.66752,1538325
26.67378,1693791
26.68003,1439680
26.68628,1053062
26.69255,721201
26.69880,545031
26.70505,462473
26.71132,376964
26.71757,314625
26.72382,273328
26.73008,249812
26.73633,245304
26.74258,246062
26.74885,280848
26.75510,353659
26.76135,422800
26.76762,488283
26.77387,468269
26.78012,390698
26.78638,333697
26.79263,314999
26.79888,300451
26.80515,282595
26.81140,251588
26.81765,244502
26.82392,243383
26.83017,254512
26.83642,264959
26.84268,260391
26.84893,247515
26.85518,246936
26.86145,251722
26.86770,262045
26.87395,311841
26.88020,355798
26.88647,427263
26.89272,566478
26.89897,985321
26.90523,2349968
26.91148,5676928
26.91773,1.040889E+07
26.92400,1.655425E+07
26.93025,2.325722E+07
26.93650,2.680823E+07
26.94277,2.346956E+07
26.94902,1.291676E+07
26.95527,5345165
26.96153,2493107
26.96778,1489804
26.97403,960972
26.98030,651612
26.98655,481187
26.99280,406327
26.99907,412701
27.00532,541075
27.01157,875846
27.01783,1273686
27.02408,1589275
27.03033,1498916
27.03660,1151000
27.04285,752710
27.04910,538884
27.05537,462683
27.06162,445530
27.06787,416651
27.07413,386432
27.08038,346479
27.08663,321712
27.09288,312622
27.09915,295662
27.10540,297263
27.11165,298830
27.11792,346440
27.12417,442224
27.13042,539726
27.13668,625795
27.14293,575785
27.14918,489065
27.15545,381610
27.16170,333386
27.16795,317627
27.17422,320508
27.18047,326681
27.18672,316188
27.19298,297303
27.19923,279950
27.20548,282257
27.21175,288009
27.21800,272470
27.22425,268906
27.23052,268896
27.23677,277791
27.24302,285028
27.24928,303732
27.25553,300610
27.26178,295095
27.26805,279286
27.27430,273956
27.28055,273655
27.28682,265306
27.29307,272578
27.29932,265054
27.30557,272397
27.31183,271890
27.31808,278392
27.32433,280682
27.33060,268140
27.33685,274943
27.34310,274393
27.34937,299001
27.35562,293431
27.36187,294456
27.36813,282505
27.37438,276847
27.38063,263820
27.38690,273857
27.39315,286544
27.39940,303952
27.40567,348815
27.41192,361159
27.41817,346243
27.42443,328934
27.43068,303235
27.43693,292620
27.44320,278536
27.44945,264631
27.45570,258272
27.46197,249921
27.46822,253113
27.47447,249173
27.48073,257308
27.48698,255444
27.49323,258968
27.49950,248230
27.50575,249583
27.51200,243979
27.51827,250192
27.52452,244577
27.53077,247597
27.53702,260166
27.54328,259454
27.54953,253494
27.55578,250205
27.56205,251852
27.56830,243362
27.57455,249300
27.58082,248077
27.58707,242693
27.59332,247163
27.59958,251062
27.60583,255220
27.61208,260394
27.61835,251700
27.62460,248932
27.63085,257038
27.63712,255543
27.64337,245625
27.64962,254070
27.65588,250680
27.66213,254108
27.66838,261767
27.67465,264777
27.68090,259874
27.68715,253547
27.69342,256135
27.69967,261819
27.70592,262289
27.71218,279815
27.71843,292529
27.72468,295141
27.73095,282402
27.73720,276076
27.74345,283039
27.74970,274593
27.75597,282486
27.76222,291077
27.76847,277672
27.77473,279145
27.78098,272411
27.78723,264989
27.79350,271307
27.79975,258232
27.80600,258846
27.81227,255316
27.81852,257216
27.82477,269733
27.83103,279960
27.83728,330371
27.84353,455717
27.84980,716250
27.85605,1093920
27.86230,1479193
27.86857,1665934
27.87482,1513570
27.88107,1177694
27.88733,828052
27.89358,625990
27.89983,498166
27.90610,441583
27.91235,393970
27.91860,372184
27.92487,344006
27.93112,327450
27.93737,330063
27.94363,320878
27.94988,313946
27.95613,306957
27.96240,304557
27.96865,300265
27.97490,307127
27.98115,303379
27.98742,305138
27.99367,306735
27.99992,308441
28.00618,295451
28.01243,303993
28.01868,296851
28.02495,289882
28.03120,283759
28.03745,283279
28.04372,282606
28.04997,282031
28.05622,288636
28.06248,276438
28.06873,287714
28.07498,288384
28.08125,290455
28.08750,287590
28.09375,289147
28.10002,291200
28.10627,284595
28.11252,287121
28.11878,286701
28.12503,288249
28.13128,296683
28.13755,288029
28.14380,282644
28.15005,285985
28.15632,284680
28.16257,294119
28.16882,294230
28.17508,290510
28.18133,290976
28.18758,281176
28.19383,289332
28.20010,287755
28.20635,294327
28.21260,290547
28.21887,291839
28.22512,306620
28.23137,296598
28.23763,298644
28.24388,302790
28.25013,305184
28.25640,321151
28.26265,319929
28.26890,334978
28.27517,327330
28.28142,344569
28.28767,343000
28.29393,353219
28.30018,363164
28.30643,388665
28.31270,397114
28.31895,420005
28.32520,422818
28.33147,410442
28.33772,437595
28.34397,447797
28.35023,446878
28.35648,452794
28.36273,435864
28.36900,431153
28.37525,435602
28.38150,442253
28.38777,431940
28.39402,413158
28.40027,412175
28.40653,402342
28.41278,394923
28.41903,394131
28.42528,389946
28.43155,381900
28.43780,370389
28.44405,358216
28.45032,354351
28.45657,343145
28.46282,339219
28.46908,331197
28.47533,330798
28.48158,330058
28.48785,321751
28.49410,323981
28.50035,322298
28.50662,310138
28.51287,319649
28.51912,321857
28.52538,316229
28.53163,310803
28.53788,301658
28.54415,300099
28.55040,295027
28.55665,292703
28.56292,295024
28.56917,304057
28.57542,299647
28.58168,297390
28.58793,298361
28.59418,300225
28.60045,304405
28.60670,297116
28.61295,298344
28.61922,287274
28.62547,288507
28.63172,296736
28.63797,287564
28.64423,295906
28.65048,283140
28.65673,284475
28.66300,293422
28.66925,293892
28.67550,290611
28.68177,278571
28.68802,293450
28.69427,282558
28.70053,290995
28.70678,283944
28.71303,292219
28.71930,294031
28.72555,293813
28.73180,296789
28.73807,291832
28.74432,295505
28.75057,286981
28.75683,281392
28.76308,279116
28.76933,291579
28.77560,279395
28.78185,281920
28.78810,287112
28.79437,282577
28.80062,285123
28.80687,277847
28.81313,285719
28.81938,284055
28.82563,286576
28.83190,288076
28.83815,281004
28.84440,287074
28.85067,291749
28.85692,276457
28.86317,279857
28.86942,277146
28.87568,272880
28.88193,286101
28.88818,276325
28.89445,281547
28.90070,273616
28.90695,277517
28.91322,283590
28.91947,289613
28.92572,275668
28.93198,286797
28.93823,272039
28.94448,282388
28.95075,275935
28.95700,278051
28.96325,281296
28.96952,272154
28.97577,284973
28.98202,273364
28.98828,273098
28.99453,281382
29.00078,278760
29.00705,270848
29.01330,275853
29.01955,284910
29.02582,274991
29.03207,270827
29.03832,270238
29.04458,276454
29.05083,274544
29.05708,270572
29.06335,280322
29.06960,283132
29.07585,283010
29.08210,270995
29.08837,273988
29.09462,274050
29.10087,282885
29.10713,274931
29.11338,269889
29.11963,269224
29.12590,270747
29.13215,273966
29.13840,273149
29.14467,269608
29.15092,280203
29.15717,267941
29.16343,280701
29.16968,280537
29.17593,280746
29.18220,280042
29.18845,274943
29.19470,288055
29.20097,295860
29.20722,330158
29.21347,395323
29.21973,496141
29.22598,618172
29.23223,748451
29.23850,858532
29.24475,933830
29.25100,889842
29.25727,791737
29.26352,641405
29.26977,524181
29.27603,452318
29.28228,397753
29.28853,375669
29.29478,353668
29.30105,335435
29.30730,330751
29.31355,325406
29.31982,307969
29.32607,312262
29.33232,310028
29.33858,311663
29.34483,296810
29.35108,301162
29.35735,301862
29.36360,294345
29.36985,286416
29.37612,292128
29.38237,288496
29.38862,294793
29.39488,290476
29.40113,291019
29.40738,278094
29.41365,289010
29.41990,291464
29.42615,279271
29.43242,279257
29.43867,279125
29.44492,278534
29.45118,283499
29.45743,278048
29.46368,276995
29.46995,280393
29.47620,273462
29.48245,281977
29.48872,270467
29.49497,270684
29.50122,283296
29.50748,271055
29.51373,272957
29.51998,283319
29.52623,275910
29.53250,275963
29.53875,269597
29.54500,283293
29.55127,272816
29.55752,279353
29.56377,269677
29.57003,269218
29.57628,280584
29.58253,279795
29.58880,278338
29.59505,273303
29.60130,267109
29.60757,276255
29.61382,275771
29.62007,266053
29.62633,276956
29.63258,276572
29.63883,274194
29.64510,274998
29.65135,266893
29.65760,266723
29.66387,274387
29.67012,267075
29.67637,262305
29.68263,272720
29.68888,262940
29.69513,272595
29.70140,263203
29.70765,274116
29.71390,274232
29.72017,278636
29.72642,261703
29.73267,265364
29.73892,262163
29.74518,273180
29.75143,264375
29.75768,258405
29.76395,274182
29.77020,271509
29.77645,273896
29.78272,272612
29.78897,259265
29.79522,270145
29.80148,272053
29.80773,260320
29.81398,262233
29.82025,271753
29.82650,260426
29.83275,269567
29.83902,264142
29.84527,260033
29.85152,269731
29.85778,272065
29.86403,267088
29.87028,267586
29.87655,261998
29.88280,266917
29.88905,265777
29.89532,262425
29.90157,260995
29.90782,261384
29.91408,262655
29.92033,260357
29.92658,270007
29.93285,269992
29.93910,259593
29.94535,261696
29.95160,258898
29.95787,264992
29.96412,266351
29.97037,265147
29.97663,265222
29.98288,267270
29.98913,261269
29.99540,265367
30.00165,265401
30.00790,265213
30.01417,262492
30.02042,267895
30.02667,259405
30.03293,269217
30.03918,257432
30.04543,257224
30.05170,262373
30.05795,262981
30.06420,265858
30.07047,254082
30.07672,266115
30.08297,262533
30.08923,267899
30.09548,262929
30.10173,266147
30.10800,252582
30.11425,266102
30.12050,252927
30.12677,254102
30.13302,254288
30.13927,259512
30.14553,258036
30.15178,259340
30.15803,252183
30.16430,262276
30.17055,252112
30.17680,249840
30.18305,253597
30.18932,260186
30.19557,263669
30.20182,250753
30.20808,263762
30.21433,252136
30.22058,260349
30.22685,249861
30.23310,255551
30.23935,257550
30.24562,254284
30.25187,247167
30.25812,259926
30.26438,252072
30.27063,257531
30.27688,248166
30.28315,262905
30.28940,253269
30.29565,249507
30.30192,251563
30.30817,248237
30.31442,247815
30.32068,260291
30.32693,259564
30.33318,249424
30.33945,250479
30.34570,252203
30.35195,250877
30.35822,260489
30.36447,250107
30.37072,260698
30.37698,258076
30.38323,252777
30.38948,246417
30.39573,254482
30.40200,256290
30.40825,245948
30.41450,248268
30.42077,251471
30.42702,258118
30.43327,249611
30.43953,254474
30.44578,255677
30.45203,249118
30.45830,245217
30.46455,252443
30.47080,245853
30.47707,252437
30.48332,249496
30.48957,256367
30.49583,251690
30.50208,249858
30.50833,252333
30.51460,254154
30.52085,248129
30.52710,248800
30.53337,246684
30.53962,251870
30.54587,257438
30.55213,254032
30.55838,246244
30.56463,256857
30.57090,245517
30.57715,252881
30.58340,252178
30.58967,253201
30.59592,248251
30.60217,247246
30.60842,256252
30.61468,247636
30.62093,253050
30.62718,253700
30.63345,253018
30.63970,254768
30.64595,250323
30.65222,253072
30.65847,247604
30.66472,254985
30.67098,250613
30.67723,246809
30.68348,243848
30.68975,245120
30.69600,253713
30.70225,257274
30.70852,243201
30.71477,243065
30.72102,247299
30.72728,253224
30.73353,242956
30.73978,250933
30.74605,244201
30.75230,239702
30.75855,247069
30.76482,253148
30.77107,241785
30.77732,249402
30.78358,244667
30.78983,249476
30.79608,246086
30.80235,246087
30.80860,252106
30.81485,241123
30.82112,241499
30.82737,249822
30.83362,240367
30.83987,240999
30.84613,251327
30.85238,238186
30.85863,241910
30.86490,247601
30.87115,240647
30.87740,240185
30.88367,240376
30.88992,240613
30.89617,251683
30.90243,240682
30.90868,244935
30.91493,250281
30.92120,248410
30.92745,250624
30.93370,240550
30.93997,241062
30.94622,248125
30.95247,248078
30.95873,261330
30.96498,267998
30.97123,294495
30.97750,321584
30.98375,344539
30.99000,387545
30.99627,411416
31.00252,428532
31.00877,432753
31.01503,415863
31.02128,390783
31.02753,374486
31.03380,343706
31.04005,319503
31.04630,303589
31.05255,288986
31.05882,279338
31.06507,265467
31.07132,263488
31.07758,260868
31.08383,260796
31.09008,264293
31.09635,251093
31.10260,257965
31.10885,258027
31.11512,259578
31.12137,259748
31.12762,255657
31.13388,244213
31.14013,247685
31.14638,258482
31.15265,249905
31.15890,250239
31.16515,255304
31.17142,249155
31.17767,257451
31.18392,245536
31.19018,251222
31.19643,247207
31.20268,250623
31.20895,237390
31.21520,249195
31.22145,243589
31.22772,244500
31.23397,247539
31.24022,243573
31.24648,240324
31.25273,242939
31.25898,235430
31.26525,243931
31.27150,241687
31.27775,240986
31.28400,240607
31.29027,249339
31.29652,247442
31.30277,250168
31.30903,248779
31.31528,251929
31.32153,242676
31.32780,245016
31.33405,249097
31.34030,242620
31.34657,242321
31.35282,244098
31.35907,250043
31.36533,248907
31.37158,249741
31.37783,255244
31.38410,241139
31.39035,246242
31.39660,255335
31.40287,242959
31.40912,243678
31.41537,245020
31.42163,251251
31.42788,245109
31.43413,247912
31.44040,246685
31.44665,243989
31.45290,240442
31.45917,241053
31.46542,243062
31.47167,239469
31.47793,239371
31.48418,235012
31.49043,235309
31.49670,242316
31.50295,233755
31.50920,247171
31.51545,236389
31.52172,245745
31.52797,236538
31.53422,233309
31.54048,231416
31.54673,239471
31.55298,237861
31.55925,240365
31.56550,239182
31.57175,244804
31.57802,236868
31.58427,233492
31.59052,242161
31.59678,237507
31.60303,242444
31.60928,241139
31.61555,240228
31.62180,241203
31.62805,240281
31.63432,233780
31.64057,229485
31.64682,245286
31.65308,234453
31.65933,238947
31.66558,236888
31.67185,241022
31.67810,231802
31.68435,230710
31.69062,242529
31.69687,231115
31.70312,239470
31.70938,239346
31.71563,235583
31.72188,237561
31.72813,234231
31.73440,230882
31.74065,231769
31.74690,231605
31.75317,237666
31.75942,229710
31.76567,231882
31.77193,232808
31.77818,226886
31.78443,230397
31.79070,236089
31.79695,236007
31.80320,226685
31.80947,237905
31.81572,231973
31.82197,226220
31.82823,238257
31.83448,234688
31.84073,226346
31.84700,233506
31.85325,223764
31.85950,232408
31.86577,228267
31.87202,232332
31.87827,235529
31.88453,233098
31.89078,226407
31.89703,237629
31.90330,230794
31.90955,234509
31.91580,234397
31.92207,234214
31.92832,233476
31.93457,226482
31.94082,223432
31.94708,224835
31.95333,232523
31.95958,225250
31.96585,234063
31.97210,224565
31.97835,232216
31.98462,225775
31.99087,227229
31.99712,224872
32.00338,230349
32.00963,228773
32.01588,224271
32.02215,228903
32.02840,237455
32.03465,232660
32.04092,234534
32.04717,221731
32.05342,229292
32.05968,225061
32.06593,230693
32.07218,231587
32.07845,227708
32.08470,222521
32.09095,222618
32.09722,227002
32.10347,232045
32.10972,222685
32.11598,231096
32.12223,224572
32.12848,228430
32.13475,229289
32.14100,220090
32.14725,223756
32.15352,221801
32.15977,227303
32.16602,220530
32.17227,223003
32.17853,227337
32.18478,219289
32.19103,227571
32.19730,217153
32.20355,221570
32.20980,231246
32.21607,221292
32.22232,222671
32.22857,223915
32.23483,229334
32.24108,225375
32.24733,232227
32.25360,221098
32.25985,232875
32.26610,221163
32.27237,228618
32.27862,221605
32.28487,228714
32.29113,223084
32.29738,220781
32.30363,227114
32.30990,227359
32.31615,228283
32.32240,228869
32.32867,222117
32.33492,228982
32.34117,227243
32.34743,228316
32.35368,223772
32.35993,217691
32.36620,219354
32.37245,220442
32.37870,216248
32.38495,223063
32.39122,228288
32.39747,217088
32.40372,220563
32.40998,223809
32.41623,230805
32.42248,225944
32.42875,222120
32.43500,228817
32.44125,218788
32.44752,217489
32.45377,226229
32.46002,213668
32.46628,219102
32.47253,227106
32.47878,215511
32.48505,223076
32.49130,222646
32.49755,216212
32.50382,215660
32.51007,215056
32.51632,216830
32.52258,227840
32.52883,217099
32.53508,225684
32.54135,220332
32.54760,214935
32.55385,216188
32.56012,224144
32.56637,227691
32.57262,219919
32.57888,226551
32.58513,216015
32.59138,227854
32.59763,223135
32.60390,213462
32.61015,219170
32.61640,222659
32.62267,217921
32.62892,224251
32.63517,223351
32.64143,220271
32.64768,220827
32.65393,220078
32.66020,228970
32.66645,219104
32.67270,215138
32.67897,215604
32.68522,220674
32.69147,213298
32.69773,215482
32.70398,214271
32.71023,216416
32.71650,224390
32.72275,214062
32.72900,212989
32.73527,218292
32.74152,216098
32.74777,212497
32.75403,211985
32.76028,212834
32.76653,220645
32.77280,210135
32.77905,216571
32.78530,215999
32.79157,214860
32.79782,210607
32.80407,217969
32.81033,215264
32.81658,211297
32.82283,220434
32.82908,221017
32.83535,211913
32.84160,215447
32.84785,214132
32.85412,212356
32.86037,212133
32.86662,209922
32.87288,212685
32.87913,207551
32.88538,217823
32.89165,218567
32.89790,213950
32.90415,219485
32.91042,220175
32.91667,213156
32.92292,211180
32.92918,211583
32.93543,217583
32.94168,212113
32.94795,218037
32.95420,208759
32.96045,218600
32.96672,212176
32.97297,209094
32.97922,209229
32.98548,209373
32.99173,209139
32.99798,211291
33.00425,207111
33.01050,217805
33.01675,213215
33.02302,211984
33.02927,217819
33.03552,216499
33.04177,209011
33.04803,216441
33.05428,213905
33.06053,221559
33.06680,211236
33.07305,213126
33.07930,216585
33.08557,218183
33.09182,213531
33.09807,208438
33.10433,209533
33.11058,209015
33.11683,214340
33.12310,214761
33.12935,216030
33.13560,218840
33.14187,224106
33.14812,221556
33.15437,229325
33.16063,224066
33.16688,228063
33.17313,225398
33.17940,218901
33.18565,220760
33.19190,224491
33.19817,215923
33.20442,218832
33.21067,217715
33.21693,213533
33.22318,220297
33.22943,210635
33.23570,216242
33.24195,208974
33.24820,210292
33.25445,214659
33.26072,209329
33.26697,206596
33.27322,208068
33.27948,207778
33.28573,209960
33.29198,211946
33.29825,215191
33.30450,217685
33.31075,212254
33.31702,224176
33.32327,222195
33.32952,228916
33.33578,235935
33.34203,240689
33.34828,238767
33.35455,242459
33.36080,245158
33.36705,250639
33.37332,245746
33.37957,246742
33.38582,239719
33.39208,236870
33.39833,243104
33.40458,232498
33.41085,223961
33.41710,226500
33.42335,218022
33.42962,214810
33.43587,218223
33.44212,220865
33.44838,216950
33.45463,214886
33.46088,210982
33.46715,215626
33.47340,216488
33.47965,205987
33.48590,214283
33.49217,208787
33.49842,212913
33.50467,202456
33.51093,207904
33.51718,208314
33.52343,206334
33.52970,204043
33.53595,204372
33.54220,211407
33.54847,206864
33.55472,211514
33.56097,209848
33.56723,205081
33.57348,202307
33.57973,207087
33.58600,203157
33.59225,207594
33.59850,203823
33.60477,210030
33.61102,206184
33.61727,209535
33.62353,203682
33.62978,205297
33.63603,213040
33.64230,203250
33.64855,200332
33.65480,209420
33.66107,203154
33.66732,212059
33.67357,204181
33.67983,203320
33.68608,203541
33.69233,204148
33.69858,205012
33.70485,206794
33.71110,208446
33.71735,201986
33.72362,201159
33.72987,212687
33.73612,201234
33.74238,206925
33.74863,210017
33.75488,204537
33.76115,208429
33.76740,204409
33.77365,209809
33.77992,208598
33.78617,208115
33.79242,210292
33.79868,203225
33.80493,208062
33.81118,202868
33.81745,202091
33.82370,200934
33.82995,199165
33.83622,199500
33.84247,204546
33.84872,206122
33.85498,202084
33.86123,205962
33.86748,204513
33.87375,207565
33.88000,201095
33.88625,201089
33.89252,206979
33.89877,203007
33.90502,203833
33.91128,209823
33.91753,205435
33.92378,207113
33.93003,206866
33.93630,192560
33.94255,206827
33.94880,200365
33.95507,202065
33.96132,202297
33.96757,208331
33.97383,202448
33.98008,199541
33.98633,197686
33.99260,204838
33.99885,198002
34.00510,205697
34.01137,197433
34.01762,205495
34.02387,199915
34.03013,202195
34.03638,199325
34.04263,194311
34.04890,201388
34.05515,203968
34.06140,203445
34.06767,204662
34.07392,196800
34.08017,204102
34.08643,203624
34.09268,198036
34.09893,206803
34.10520,196698
34.11145,200250
34.11770,197172
34.12397,197054
34.13022,197852
34.13647,200406
34.14272,203996
34.14898,195037
34.15523,197631
34.16148,203372
34.16775,201519
34.17400,197397
34.18025,206041
34.18652,200846
34.19277,198957
34.19902,196856
34.20528,204938
34.21153,195581
34.21778,203855
34.22405,205121
34.23030,201434
34.23655,193284
34.24282,195713
34.24907,201066
34.25532,199690
34.26158,199742
34.26783,196869
34.27408,195581
34.28035,199946
34.28660,198447
34.29285,199603
34.29912,194454
34.30537,198399
34.31162,195540
34.31788,200152
34.32413,197143
34.33038,191784
34.33665,194811
34.34290,195515
34.34915,193565
34.35542,207330
34.36167,200242
34.36792,200783
34.37417,200082
34.38043,196318
34.38668,199874
34.39293,196262
34.39920,195131
34.40545,203678
34.41170,191532
34.41797,200756
34.42422,195481
34.43047,193347
34.43673,195738
34.44298,194243
34.44923,195738
34.45550,199519
34.46175,196869
34.46800,193955
34.47427,193091
34.48052,196126
34.48677,192965
34.49303,201306
34.49928,194676
34.50553,192568
34.51180,192823
34.51805,200478
34.52430,193760
34.53057,198046
34.53682,195119
34.54307,200431
34.54933,188936
34.55558,192609
34.56183,193709
34.56810,192679
34.57435,200824
34.58060,198184
34.58685,200069
34.59312,192511
34.59937,194711
34.60562,193416
34.61188,192040
34.61813,190452
34.62438,190917
34.63065,193173
34.63690,193901
34.64315,188951
34.64942,192166
34.65567,188853
34.66192,191906
34.66818,195311
34.67443,190254
34.68068,192209
34.68695,193534
34.69320,191637
34.69945,191475
34.70572,196732
34.71197,198578
34.71822,198084
34.72448,198540
34.73073,191342
34.73698,191729
34.74325,188425
34.74950,191960
34.75575,198353
34.76202,189214
34.76827,195175
34.77452,194731
34.78078,198186
34.78703,190063
34.79328,200411
34.79955,197383
34.80580,192297
34.81205,192821
34.81830,194916
34.82457,195898
34.83082,187310
34.83707,189385
34.84333,193420
34.84958,194770
34.85583,197873
34.86210,192378
34.86835,188839
34.87460,192928
34.88087,186487
34.88712,185638
34.89337,191643
34.89963,187344
34.90588,197357
34.91213,188217
34.91840,197878
34.92465,187620
34.93090,188277
34.93717,187511
34.94342,195223
34.94967,188789
34.95593,193969
34.96218,186577
34.96843,192553
34.97470,193681
34.98095,192171
34.98720,187664
34.99347,192423
34.99972,189045
35.00597,191070
35.01223,189921
35.01848,188216
35.02473,186229
35.03098,195471
35.03725,186421
35.04350,191086
35.04975,188813
35.05602,189923
35.06227,194595
35.06852,196257
35.07478,187995
35.08103,190791
35.08728,187947
35.09355,193915
35.09980,196896
35.10605,196147
35.11232,193453
35.11857,181375
35.12482,185662
35.13108,185813
35.13733,187889
35.14358,185195
35.14985,187111
35.15610,186678
35.16235,183797
35.16862,188356
35.17487,185429
35.18112,190772
35.18738,186427
35.19363,184412
35.19988,185495
35.20615,196258
35.21240,188585
35.21865,192649
35.22492,192052
35.23117,186732
35.23742,185168
35.24367,191788
35.24993,193290
35.25618,190132
35.26243,189631
35.26870,189189
35.27495,190504
35.28120,183391
35.28747,192270
35.29372,184310
35.29997,185226
35.30623,188294
35.31248,192569
35.31873,184674
35.32500,186390
35.33125,186389
35.33750,184552
35.34377,181022
35.35002,191563
35.35627,189671
35.36253,188288
35.36878,180060
35.37503,187363
35.38130,189227
35.38755,187755
35.39380,191091
35.40007,187477
35.40632,184254
35.41257,182251
35.41883,189067
35.42508,186778
35.43133,190000
35.43760,179856
35.44385,189525
35.45010,185764
35.45637,184161
35.46262,187551
35.46887,190973
35.47512,185750
35.48138,184126
35.48763,191048
35.49388,178511
35.50015,179565
35.50640,184622
35.51265,185689
35.51892,181670
35.52517,192424
35.53142,182818
35.53768,192751
35.54393,192820
35.55018,194475
35.55645,182694
35.56270,192537
35.56895,189567
35.57522,183644
35.58147,181936
35.58772,188005
35.59398,185097
35.60023,182543
35.60648,183252
35.61275,184079
35.61900,182015
35.62525,185106
35.63152,189706
35.63777,185323
35.64402,183295
35.65028,181912
35.65653,183885
35.66278,180505
35.66905,182107
35.67530,185839
35.68155,189330
35.68780,180922
35.69407,180419
35.70032,179349
35.70657,182586
35.71283,181268
35.71908,185477
35.72533,180385
35.73160,180625
35.73785,179771
35.74410,184847
35.75037,180320
35.75662,181002
35.76287,186715
35.76913,180831
35.77538,178871
35.78163,178608
35.78790,178729
35.79415,175636
35.80040,178661
35.80667,183372
35.81292,180462
35.81917,179719
35.82543,185993
35.83168,180991
35.83793,185839
35.84420,180383
35.85045,183286
35.85670,178365
35.86297,187060
35.86922,178716
35.87547,180592
35.88173,178937
35.88798,186006
35.89423,185521
35.90048,178693
35.90675,182880
35.91300,177997
35.91925,184802
35.92552,179437
35.93177,187478
35.93802,179553
35.94428,183414
35.95053,180036
35.95678,179336
35.96305,181700
35.96930,177635
35.97555,185366
35.98182,177674
35.98807,177053
35.99432,175187
36.00058,176754
36.00683,178673
36.01308,178652
36.01935,182954
36.02560,180925
36.03185,184594
36.03812,179300
36.04437,175768
36.05062,176744
36.05688,180596
36.06313,183538
36.06938,183169
36.07565,174790
36.08190,181079
36.08815,186971
36.09442,175177
36.10067,173660
36.10692,179636
36.11318,176777
36.11943,172691
36.12568,183306
36.13193,174666
36.13820,177713
36.14445,179745
36.15070,173300
36.15697,176758
36.16322,176004
36.16947,174637
36.17573,183536
36.18198,174432
36.18823,180831
36.19450,176354
36.20075,184813
36.20700,187812
36.21327,184009
36.21952,193569
36.22577,191521
36.23203,197889
36.23828,204221
36.24453,210613
36.25080,219855
36.25705,232126
36.26330,235423
36.26957,243469
36.27582,257755
36.28207,269611
36.28833,278673
36.29458,278502
36.30083,282715
36.30710,287563
36.31335,296428
36.31960,292738
36.32587,279936
36.33212,270531
36.33837,259260
36.34462,250790
36.35088,242990
36.35713,237820
36.36338,218001
36.36965,215382
36.37590,207915
36.38215,201147
36.38842,204753
36.39467,199538
36.40092,195773
36.40718,190488
36.41343,192294
36.41968,186407
36.42595,184250
36.43220,190065
36.43845,186133
36.44472,184009
36.45097,188034
36.45722,177155
36.46348,178149
36.46973,186950
36.47598,182232
36.48225,180904
36.48850,177229
36.49475,185002
36.50102,177614
36.50727,182899
36.51352,185010
36.51978,180799
36.52603,177469
36.53228,179226
36.53855,181434
36.54480,184044
36.55105,180090
36.55732,180291
36.56357,177655
36.56982,183253
36.57607,180858
36.58233,185988
36.58858,182088
36.59483,179872
36.60110,188287
36.60735,187665
36.61360,181876
36.61987,183599
36.62612,184469
36.63237,189373
36.63863,186719
36.64488,188493
36.65113,181419
36.65740,187419
36.66365,179525
36.66990,176798
36.67617,179599
36.68242,178945
36.68867,182964
36.69493,179612
36.70118,176380
36.70743,176671
36.71370,177718
36.71995,177196
36.72620,172990
36.73247,183442
36.73872,173910
36.74497,173676
36.75123,177846
36.75748,175013
36.76373,172867
36.77000,178793
36.77625,177023
36.78250,175389
36.78875,179619
36.79502,175013
36.80127,173210
36.80752,178447
36.81378,175497
36.82003,179085
36.82628,175637
36.83255,177920
36.83880,175543
36.84505,174289
36.85132,178139
36.85757,175005
36.86382,175242
36.87008,175576
36.87633,179928
36.88258,179308
36.88885,178994
36.89510,177155
36.90135,178810
36.90762,172514
36.91387,179856
36.92012,179675
36.92638,174732
36.93263,175553
36.93888,177203
36.94515,177382
36.95140,171155
36.95765,171829
36.96392,173062
36.97017,172131
36.97642,173117
36.98268,171201
36.98893,171914
36.99518,168424
37.00145,176064
37.00770,171127
37.01395,170058
37.02020,172500
37.02647,175193
37.03272,173698
37.03897,172113
37.04523,177937
37.05148,170700
37.05773,168096
37.06400,172676
37.07025,170330
37.07650,176232
37.08277,175498
37.08902,175186
37.09527,171855
37.10153,173774
37.10778,170144
37.11403,172944
37.12030,173613
37.12655,171111
37.13280,172825
37.13907,175063
37.14532,171066
37.15157,170759
37.15783,170736
37.16408,177937
37.17033,172311
37.17660,169833
37.18285,176088
37.18910,171210
37.19537,172221
37.20162,171130
37.20787,167003
37.21413,169182
37.22038,173046
37.22663,168717
37.23288,165966
37.23915,173649
37.24540,177548
37.25165,169865
37.25792,174157
37.26417,167876
37.27042,170003
37.27668,169857
37.28293,173411
37.28918,169468
37.29545,170004
37.30170,174280
37.30795,172996
37.31422,167989
37.32047,173263
37.32672,177796
37.33298,166259
37.33923,171282
37.34548,169903
37.35175,174468
37.35800,175627
37.36425,163479
37.37052,170194
37.37677,164316
37.38302,171196
37.38928,167192
37.39553,170522
37.40178,167918
37.40805,170495
37.41430,169551
37.42055,173147
37.42682,172196
37.43307,167358
37.43932,171412
37.44558,173018
37.45183,172359
37.45808,172595
37.46433,167189
37.47060,164578
37.47685,166138
37.48310,164048
37.48937,171144
