D:\MassHunter\GCMS\1\data\metastasis_lineages_3replicates_3runs_10302020\ethyl_acetate_run1_10302020.D Fri Oct 30 14:22:07 2020
Start of data points
5.99348,17216
5.99973,16061
6.00600,16477
6.01225,17109
6.01850,16358
6.02477,18014
6.03102,16897
6.03727,17726
6.04353,15701
6.04978,15831
6.05603,15830
6.06230,15691
6.06855,15762
6.07480,15373
6.08107,15355
6.08732,14921
6.09357,14545
6.09983,14769
6.10608,13538
6.11233,14137
6.11860,14173
6.12485,13717
6.13110,13949
6.13737,13844
6.14362,14637
6.14987,14376
6.15613,13134
6.16238,14072
6.16863,15049
6.17490,16431
6.18115,13148
6.18740,12706
6.19365,13311
6.19992,13292
6.20617,13107
6.21242,13807
6.21868,13175
6.22493,13331
6.23118,13362
6.23745,12111
6.24370,12612
6.24995,13848
6.25622,12491
6.26247,12666
6.26872,13263
6.27498,12630
6.28123,11742
6.28748,12378
6.29375,12278
6.30000,11822
6.30625,12718
6.31252,12915
6.31877,12932
6.32502,12456
6.33128,12339
6.33753,12578
6.34378,11908
6.35005,11629
6.35630,12499
6.36255,12741
6.36882,12811
6.37507,12866
6.38132,12189
6.38758,12427
6.39383,11642
6.40008,12604
6.40635,11736
6.41260,11383
6.41885,11965
6.42510,12208
6.43137,12718
6.43762,12333
6.44387,11858
6.45013,11506
6.45638,12397
6.46263,11238
6.46890,11741
6.47515,10970
6.48140,11281
6.48767,11626
6.49392,11574
6.50017,11320
6.50643,11656
6.51268,10564
6.51893,12320
6.52520,11689
6.53145,10671
6.53770,11228
6.54397,11301
6.55022,11037
6.55647,12060
6.56273,10724
6.56898,11112
6.57523,11159
6.58150,11122
6.58775,11411
6.59400,11164
6.60027,11394
6.60652,11106
6.61277,10909
6.61903,11177
6.62528,10449
6.63153,11271
6.63778,11135
6.64405,10691
6.65030,10411
6.65655,11589
6.66282,10997
6.66907,11041
6.67532,10272
6.68158,10043
6.68783,10962
6.69408,10462
6.70035,10718
6.70660,11037
6.71285,10406
6.71912,11075
6.72537,11099
6.73162,10812
6.73788,10883
6.74413,10727
6.75038,10061
6.75665,11418
6.76290,10957
6.76915,10765
6.77542,10221
6.78167,10446
6.78792,9660
6.79418,10423
6.80043,10333
6.80668,10475
6.81295,10591
6.81920,11715
6.82545,10898
6.83172,10698
6.83797,11129
6.84422,10066
6.85047,10672
6.85673,10178
6.86298,9384
6.86923,9879
6.87550,10074
6.88175,9747
6.88800,10102
6.89427,10390
6.90052,10572
6.90677,10340
6.91303,10833
6.91928,9583
6.92553,10020
6.93180,10586
6.93805,9545
6.94430,10593
6.95057,9481
6.95682,9269
6.96307,9372
6.96933,10094
6.97558,9275
6.98183,10098
6.98810,9493
6.99435,9716
7.00060,10073
7.00687,9255
7.01312,9258
7.01937,9743
7.02563,9963
7.03188,9949
7.03813,9118
7.04440,9784
7.05065,9482
7.05690,9505
7.06317,9440
7.06942,9562
7.07567,8454
7.08192,9519
7.08818,8875
7.09443,9637
7.10068,9591
7.10695,8998
7.11320,9164
7.11945,9686
7.12572,9666
7.13197,9107
7.13822,9624
7.14448,8781
7.15073,9416
7.15698,8485
7.16325,8862
7.16950,9645
7.17575,8884
7.18202,8952
7.18827,8325
7.19452,8842
7.20078,8889
7.20703,9273
7.21328,8571
7.21955,8618
7.22580,8353
7.23205,8409
7.23832,8031
7.24457,8540
7.25082,8343
7.25708,7902
7.26333,8641
7.26958,9457
7.27585,8933
7.28210,8249
7.28835,8534
7.29460,8352
7.30087,8923
7.30712,8280
7.31337,8019
7.31963,8474
7.32588,8146
7.33213,8362
7.33840,8179
7.34465,8238
7.35090,8362
7.35717,8544
7.36342,7958
7.36967,9195
7.37593,7733
7.38218,8469
7.38843,8047
7.39470,8257
7.40095,8818
7.40720,8431
7.41347,7856
7.41972,7908
7.42597,8012
7.43223,7430
7.43848,8207
7.44473,8132
7.45100,7851
7.45725,8252
7.46350,8094
7.46977,7536
7.47602,8146
7.48227,7339
7.48853,8706
7.49478,7896
7.50103,7740
7.50728,7364
7.51355,7202
7.51980,7905
7.52605,8990
7.53232,10900
7.53857,19943
7.54482,29918
7.55108,33966
7.55733,30796
7.56358,23233
7.56985,17440
7.57610,13968
7.58235,11576
7.58862,10302
7.59487,10272
7.60112,8757
7.60738,8653
7.61363,8436
7.61988,8054
7.62615,8971
7.63240,7992
7.63865,7286
7.64492,8132
7.65117,8323
7.65742,8096
7.66368,7114
7.66993,7759
7.67618,7966
7.68245,7872
7.68870,7873
7.69495,7587
7.70122,7446
7.70747,7381
7.71372,7379
7.71998,7414
7.72623,7408
7.73248,7291
7.73873,7581
7.74500,7611
7.75125,7657
7.75750,7489
7.76377,7244
7.77002,7072
7.77627,6946
7.78253,6941
7.78878,7578
7.79503,7104
7.80130,7561
7.80755,6543
7.81380,7028
7.82007,7759
7.82632,7063
7.83257,6712
7.83883,6957
7.84508,7346
7.85133,6626
7.85760,7224
7.86385,7492
7.87010,7301
7.87637,6912
7.88262,8015
7.88887,6934
7.89513,6649
7.90138,7532
7.90763,7156
7.91390,7746
7.92015,8242
7.92640,8931
7.93267,9207
7.93892,10243
7.94517,10131
7.95142,10392
7.95768,10123
7.96393,9549
7.97018,9855
7.97645,9398
7.98270,9669
7.98895,8668
7.99522,9077
8.00147,8154
8.00772,9032
8.01398,8087
8.02023,7777
8.02648,8515
8.03275,8011
8.03900,7661
8.04525,7667
8.05152,7416
8.05777,7539
8.06402,8091
8.07028,6936
8.07653,7551
8.08278,7375
8.08905,6582
8.09530,7265
8.10155,6251
8.10782,7088
8.11407,7340
8.12032,7758
8.12658,8443
8.13283,9220
8.13908,9281
8.14535,8988
8.15160,9495
8.15785,8306
8.16410,8427
8.17037,8323
8.17662,8392
8.18287,7835
8.18913,7953
8.19538,7037
8.20163,7619
8.20790,7471
8.21415,7235
8.22040,7461
8.22667,6867
8.23292,7791
8.23917,6691
8.24543,7575
8.25168,6890
8.25793,6844
8.26420,6528
8.27045,6894
8.27670,7630
8.28297,6318
8.28922,6503
8.29547,6182
8.30173,6458
8.30798,6371
8.31423,6049
8.32050,7463
8.32675,6996
8.33300,6718
8.33927,6498
8.34552,6799
8.35177,6835
8.35803,6389
8.36428,6896
8.37053,6235
8.37680,5633
8.38305,6338
8.38930,6314
8.39555,6943
8.40182,6260
8.40807,6256
8.41432,6052
8.42058,5914
8.42683,6187
8.43308,6448
8.43935,6318
8.44560,5888
8.45185,7218
8.45812,6775
8.46437,6592
8.47062,6101
8.47688,6292
8.48313,6385
8.48938,5599
8.49565,5823
8.50190,5713
8.50815,6320
8.51442,5895
8.52067,6061
8.52692,6060
8.53318,6055
8.53943,5904
8.54568,5562
8.55195,5883
8.55820,6416
8.56445,6277
8.57072,6208
8.57697,6468
8.58322,5615
8.58948,7119
8.59573,8331
8.60198,8125
8.60823,8007
8.61450,8137
8.62075,8325
8.62700,7928
8.63327,6256
8.63952,6867
8.64577,6604
8.65203,6199
8.65828,7135
8.66453,6972
8.67080,7068
8.67705,7006
8.68330,5763
8.68957,7012
8.69582,6015
8.70207,5947
8.70833,6424
8.71458,5904
8.72083,6161
8.72710,5992
8.73335,5440
8.73960,5384
8.74587,6980
8.75212,6180
8.75837,5875
8.76463,5607
8.77088,5848
8.77713,5605
8.78340,6214
8.78965,5337
8.79590,5472
8.80217,5669
8.80842,5704
8.81467,5265
8.82093,5720
8.82718,5770
8.83343,5767
8.83968,5841
8.84595,5738
8.85220,5351
8.85845,5382
8.86472,5956
8.87097,5548
8.87722,5139
8.88348,5672
8.88973,5552
8.89598,4888
8.90225,5923
8.90850,5203
8.91475,5172
8.92102,5523
8.92727,5401
8.93352,5539
8.93978,5666
8.94603,5988
8.95228,5126
8.95855,5515
8.96480,5368
8.97105,5302
8.97732,5544
8.98357,5798
8.98982,5485
8.99608,6029
9.00233,4602
9.00858,5582
9.01485,5585
9.02110,5203
9.02735,5364
9.03362,5204
9.03987,5320
9.04612,4963
9.05237,5428
9.05863,4825
9.06488,5212
9.07113,5012
9.07740,5398
9.08365,5191
9.08990,5099
9.09617,5519
9.10242,5660
9.10867,5333
9.11493,5137
9.12118,5299
9.12743,5044
9.13370,5063
9.13995,5527
9.14620,5449
9.15247,5338
9.15872,5641
9.16497,5733
9.17123,5681
9.17748,5609
9.18373,5015
9.19000,4610
9.19625,5640
9.20250,5193
9.20877,4797
9.21502,4594
9.22127,4904
9.22753,5299
9.23378,4947
9.24003,4982
9.24630,5490
9.25255,4866
9.25880,5266
9.26507,5224
9.27132,5003
9.27757,5184
9.28382,5055
9.29008,5467
9.29633,5267
9.30258,5185
9.30885,4961
9.31510,5443
9.32135,5180
9.32762,5095
9.33387,5055
9.34012,5005
9.34638,5218
9.35263,4658
9.35888,4765
9.36515,4859
9.37140,5020
9.37765,5961
9.38392,5536
9.39017,6242
9.39642,6311
9.40268,5835
9.40893,5376
9.41518,5554
9.42145,4951
9.42770,4667
9.43395,5378
9.44022,5144
9.44647,5642
9.45272,5679
9.45898,6005
9.46523,5143
9.47148,5558
9.47775,5032
9.48400,5199
9.49025,4679
9.49650,5012
9.50277,5232
9.50902,4829
9.51527,5363
9.52153,4096
9.52778,4813
9.53403,4702
9.54030,4734
9.54655,5173
9.55280,5155
9.55907,4794
9.56532,5647
9.57157,4720
9.57783,4985
9.58408,5299
9.59033,5081
9.59660,5184
9.60285,4735
9.60910,5488
9.61537,5508
9.62162,4831
9.62787,4651
9.63413,4914
9.64038,4905
9.64663,3810
9.65290,5009
9.65915,4348
9.66540,4620
9.67167,4520
9.67792,5089
9.68417,4646
9.69043,4707
9.69668,4448
9.70293,4990
9.70920,5192
9.71545,5018
9.72170,5220
9.72795,4799
9.73422,4678
9.74047,4511
9.74672,4716
9.75298,4690
9.75923,4630
9.76548,4690
9.77175,5080
9.77800,5049
9.78425,4426
9.79052,4453
9.79677,4843
9.80302,4622
9.80928,5055
9.81553,4713
9.82178,4919
9.82805,5133
9.83430,4596
9.84055,4545
9.84682,3992
9.85307,5167
9.85932,5376
9.86558,4515
9.87183,4615
9.87808,4465
9.88435,4051
9.89060,5109
9.89685,4966
9.90312,4082
9.90937,4263
9.91562,4830
9.92188,4190
9.92813,4545
9.93438,4730
9.94063,4946
9.94690,4543
9.95315,4313
9.95940,4085
9.96567,4442
9.97192,4273
9.97817,5397
9.98443,8646
9.99068,17406
9.99693,25970
10.00320,30980
10.00945,23996
10.01570,15074
10.02197,9412
10.02822,6442
10.03447,5087
10.04073,4592
10.04698,4479
10.05323,4787
10.05950,4643
10.06575,4226
10.07200,4520
10.07827,3758
10.08452,4344
10.09077,4204
10.09703,3533
10.10328,3796
10.10953,4308
10.11580,4432
10.12205,4415
10.12830,4151
10.13457,3981
10.14082,4177
10.14707,4652
10.15332,4202
10.15958,4247
10.16583,4199
10.17208,4272
10.17835,4613
10.18460,5432
10.19085,5608
10.19712,6818
10.20337,7197
10.20962,5513
10.21588,4527
10.22213,4014
10.22838,4182
10.23465,4289
10.24090,4706
10.24715,4021
10.25342,4239
10.25967,4405
10.26592,4224
10.27218,3742
10.27843,3903
10.28468,4592
10.29095,3819
10.29720,4034
10.30345,4140
10.30972,4225
10.31597,4208
10.32222,4425
10.32848,3657
10.33473,3861
10.34098,4315
10.34725,3968
10.35350,3881
10.35975,3492
10.36602,4047
10.37227,3923
10.37852,3758
10.38477,4088
10.39103,4071
10.39728,4382
10.40353,4004
10.40980,4209
10.41605,4466
10.42230,4179
10.42857,3868
10.43482,4013
10.44107,3823
10.44733,3713
10.45358,4747
10.45983,3827
10.46610,3948
10.47235,3749
10.47860,4461
10.48487,4004
10.49112,6834
10.49737,7086
10.50363,6670
10.50988,5991
10.51613,4897
10.52240,4620
10.52865,4215
10.53490,4146
10.54117,3913
10.54742,4646
10.55367,4359
10.55993,3579
10.56618,3779
10.57243,4045
10.57870,3918
10.58495,3865
10.59120,4338
10.59745,3956
10.60372,4395
10.60997,3667
10.61622,3749
10.62248,4074
10.62873,4123
10.63498,4396
10.64125,4167
10.64750,4925
10.65375,4084
10.66002,4371
10.66627,4295
10.67252,4765
10.67878,3917
10.68503,3807
10.69128,4399
10.69755,4549
10.70380,3264
10.71005,4135
10.71632,3725
10.72257,4045
10.72882,3899
10.73508,3993
10.74133,3762
10.74758,3508
10.75385,4231
10.76010,3592
10.76635,3384
10.77262,3937
10.77887,4383
10.78512,4825
10.79138,6030
10.79763,5925
10.80388,5358
10.81013,4333
10.81640,4032
10.82265,3581
10.82890,3479
10.83517,3806
10.84142,3814
10.84767,4242
10.85393,3748
10.86018,3817
10.86643,4285
10.87270,3556
10.87895,3692
10.88520,3569
10.89147,3249
10.89772,3368
10.90397,3670
10.91023,3819
10.91648,4080
10.92273,3936
10.92900,3658
10.93525,3762
10.94150,4135
10.94777,4090
10.95402,4076
10.96027,4089
10.96653,4066
10.97278,4313
10.97903,3792
10.98530,3676
10.99155,3904
10.99780,4230
11.00407,3901
11.01032,3664
11.01657,3461
11.02283,3471
11.02908,3798
11.03533,3881
11.04158,3861
11.04785,4079
11.05410,3483
11.06035,3955
11.06662,3718
11.07287,3528
11.07912,3612
11.08538,3989
11.09163,3631
11.09788,3442
11.10415,3933
11.11040,3691
11.11665,3678
11.12292,4326
11.12917,5530
11.13542,5982
11.14168,6227
11.14793,5217
11.15418,4548
11.16045,4135
11.16670,4850
11.17295,4247
11.17922,3854
11.18547,4136
11.19172,3926
11.19798,3623
11.20423,3656
11.21048,3742
11.21675,3387
11.22300,3542
11.22925,3075
11.23552,3583
11.24177,3342
11.24802,3511
11.25427,4060
11.26053,3307
11.26678,3583
11.27303,3713
11.27930,3586
11.28555,3172
11.29180,3595
11.29807,3668
11.30432,4026
11.31057,3538
11.31683,3615
11.32308,3103
11.32933,3646
11.33560,4356
11.34185,3170
11.34810,3193
11.35437,3400
11.36062,3488
11.36687,3311
11.37313,3186
11.37938,3737
11.38563,3868
11.39190,3049
11.39815,2871
11.40440,3193
11.41067,3580
11.41692,3183
11.42317,3412
11.42943,3266
11.43568,3426
11.44193,3679
11.44820,3618
11.45445,3897
11.46070,2923
11.46697,2715
11.47322,3611
11.47947,3472
11.48572,3885
11.49198,3063
11.49823,3437
11.50448,3704
11.51075,3480
11.51700,3533
11.52325,3462
11.52952,3775
11.53577,3341
11.54202,3295
11.54828,3643
11.55453,3314
11.56078,3218
11.56705,3357
11.57330,2965
11.57955,3077
11.58582,3762
11.59207,3521
11.59832,3507
11.60458,2865
11.61083,3685
11.61708,3704
11.62335,3469
11.62960,3091
11.63585,3262
11.64212,3927
11.64837,3165
11.65462,3378
11.66088,3405
11.66713,3113
11.67338,3291
11.67965,3575
11.68590,3400
11.69215,3796
11.69840,2869
11.70467,3284
11.71092,3377
11.71717,3242
11.72343,3226
11.72968,3016
11.73593,3644
11.74220,3207
11.74845,3087
11.75470,3026
11.76097,3649
11.76722,2951
11.77347,3391
11.77973,3425
11.78598,3772
11.79223,3563
11.79850,3347
11.80475,3888
11.81100,3406
11.81727,3139
11.82352,3328
11.82977,3312
11.83603,3358
11.84228,2813
11.84853,2965
11.85480,3703
11.86105,3224
11.86730,3301
11.87357,2811
11.87982,4020
11.88607,3689
11.89233,3408
11.89858,3100
11.90483,3783
11.91110,4082
11.91735,4162
11.92360,5777
11.92985,4735
11.93612,5612
11.94237,5337
11.94862,4119
11.95488,4020
11.96113,2922
11.96738,3171
11.97365,3198
11.97990,3305
11.98615,3147
11.99242,2776
11.99867,2993
12.00492,3334
12.01118,3569
12.01743,3546
12.02368,3056
12.02995,3154
12.03620,3732
12.04245,3070
12.04872,3611
12.05497,3413
12.06122,3252
12.06748,3352
12.07373,3439
12.07998,3037
12.08625,3513
12.09250,3127
12.09875,2946
12.10502,3458
12.11127,3091
12.11752,3090
12.12378,3064
12.13003,3526
12.13628,3534
12.14253,3516
12.14880,3656
12.15505,2934
12.16130,3228
12.16757,3295
12.17382,3540
12.18007,2973
12.18633,3645
12.19258,3080
12.19883,2932
12.20510,3122
12.21135,3691
12.21760,4240
12.22387,6166
12.23012,9147
12.23637,13284
12.24263,12987
12.24888,8403
12.25513,5824
12.26140,4404
12.26765,3517
12.27390,3392
12.28017,3892
12.28642,2944
12.29267,3248
12.29893,3354
12.30518,3530
12.31143,3088
12.31770,2963
12.32395,3277
12.33020,3303
12.33647,3012
12.34272,3528
12.34897,3504
12.35523,3715
12.36148,3051
12.36773,3070
12.37398,3192
12.38025,2745
12.38650,3160
12.39275,3376
12.39902,2926
12.40527,3280
12.41152,3013
12.41778,3166
12.42403,4116
12.43028,5354
12.43655,7017
12.44280,7700
12.44905,6952
12.45532,4999
12.46157,3112
12.46782,3290
12.47408,2992
12.48033,2736
12.48658,3172
12.49285,2959
12.49910,2992
12.50535,2566
12.51162,3523
12.51787,3078
12.52412,3176
12.53038,3352
12.53663,2661
12.54288,2804
12.54915,3185
12.55540,3029
12.56165,2807
12.56792,3329
12.57417,2710
12.58042,3430
12.58667,3375
12.59293,3123
12.59918,3117
12.60543,3292
12.61170,3382
12.61795,3342
12.62420,3403
12.63047,2995
12.63672,3020
12.64297,3309
12.64923,3758
12.65548,4259
12.66173,3361
12.66800,3375
12.67425,3635
12.68050,3039
12.68677,2829
12.69302,2880
12.69927,3001
12.70553,2989
12.71178,3157
12.71803,2994
12.72430,2949
12.73055,3180
12.73680,2736
12.74307,3265
12.74932,2877
12.75557,2797
12.76183,3473
12.76808,3655
12.77433,3405
12.78060,3212
12.78685,3399
12.79310,3284
12.79935,2967
12.80562,2613
12.81187,2707
12.81812,3512
12.82438,4095
12.83063,3703
12.83688,3263
12.84315,3288
12.84940,3263
12.85565,2948
12.86192,2450
12.86817,2483
12.87442,3134
12.88068,2886
12.88693,3284
12.89318,2961
12.89945,3370
12.90570,3051
12.91195,3060
12.91822,2942
12.92447,2622
12.93072,2549
12.93698,2988
12.94323,3549
12.94948,2812
12.95575,2878
12.96200,2922
12.96825,2896
12.97452,2707
12.98077,2989
12.98702,3128
12.99328,3233
12.99953,2746
13.00578,2519
13.01205,3384
13.01830,2723
13.02455,3104
13.03080,2638
13.03707,2354
13.04332,3244
13.04957,3130
13.05583,2812
13.06208,2951
13.06833,2991
13.07460,2698
13.08085,2862
13.08710,2881
13.09337,3244
13.09962,2800
13.10587,3070
13.11213,2927
13.11838,3202
13.12463,2811
13.13090,3172
13.13715,2758
13.14340,3144
13.14967,2821
13.15592,3673
13.16217,2529
13.16843,2797
13.17468,2301
13.18093,2782
13.18720,3044
13.19345,2753
13.19970,2845
13.20597,2704
13.21222,3070
13.21847,2964
13.22473,3006
13.23098,2987
13.23723,2850
13.24348,2808
13.24975,2741
13.25600,3034
13.26225,3286
13.26852,2971
13.27477,2897
13.28102,2836
13.28728,3435
13.29353,2837
13.29978,2665
13.30605,2872
13.31230,3152
13.31855,3383
13.32482,2834
13.33107,3165
13.33732,3183
13.34358,2584
13.34983,2796
13.35608,2726
13.36235,3107
13.36860,2687
13.37485,3135
13.38112,3625
13.38737,3282
13.39362,3193
13.39988,3383
13.40613,2420
13.41238,3393
13.41865,2826
13.42490,3364
13.43115,3406
13.43742,2870
13.44367,2823
13.44992,2882
13.45617,2548
13.46243,2807
13.46868,2882
13.47493,2743
13.48120,3068
13.48745,3406
13.49370,3757
13.49997,4189
13.50622,4509
13.51247,4490
13.51873,3467
13.52498,3123
13.53123,3005
13.53750,2905
13.54375,4433
13.55000,8153
13.55627,17210
13.56252,26729
13.56877,29423
13.57503,23141
13.58128,12842
13.58753,7429
13.59380,4609
13.60005,4117
13.60630,3508
13.61257,2953
13.61882,3644
13.62507,3064
13.63133,3607
13.63758,2984
13.64383,3243
13.65010,3124
13.65635,2839
13.66260,2963
13.66887,3257
13.67512,3057
13.68137,3192
13.68762,3593
13.69388,3066
13.70013,2730
13.70638,3210
13.71265,2439
13.71890,3078
13.72515,3221
13.73142,3157
13.73767,3070
13.74392,2852
13.75018,3003
13.75643,3728
13.76268,3024
13.76895,3072
13.77520,3025
13.78145,2668
13.78772,2824
13.79397,2944
13.80022,3142
13.80648,3408
13.81273,3495
13.81898,3308
13.82525,3197
13.83150,3228
13.83775,3415
13.84402,2859
13.85027,3012
13.85652,2993
13.86278,2923
13.86903,2792
13.87528,3079
13.88155,3351
13.88780,2884
13.89405,2868
13.90032,2951
13.90657,3199
13.91282,3177
13.91907,2803
13.92533,2548
13.93158,3159
13.93783,2933
13.94410,3004
13.95035,2379
13.95660,2867
13.96287,2624
13.96912,2855
13.97537,2855
13.98163,3259
13.98788,2597
13.99413,3357
14.00040,2893
14.00665,2224
14.01290,2955
14.01917,2456
14.02542,3292
14.03167,3626
14.03793,3350
14.04418,2981
14.05043,3585
14.05670,3108
14.06295,2607
14.06920,2588
14.07547,2774
14.08172,3029
14.08797,3163
14.09423,3075
14.10048,3127
14.10673,3131
14.11300,2853
14.11925,3358
14.12550,3085
14.13175,3053
14.13802,2952
14.14427,2906
14.15052,2856
14.15678,3002
14.16303,2659
14.16928,2548
14.17555,2468
14.18180,2693
14.18805,3076
14.19432,3075
14.20057,2359
14.20682,3284
14.21308,2893
14.21933,3036
14.22558,3454
14.23185,3877
14.23810,6131
14.24435,7463
14.25062,7950
14.25687,5640
14.26312,3823
14.26938,2556
14.27563,3269
14.28188,3472
14.28815,3378
14.29440,3423
14.30065,2908
14.30692,2935
14.31317,3627
14.31942,3322
14.32568,3448
14.33193,2803
14.33818,3106
14.34445,3174
14.35070,3618
14.35695,2801
14.36320,3065
14.36947,2769
14.37572,2966
14.38197,3137
14.38823,2570
14.39448,3782
14.40073,3157
14.40700,3174
14.41325,3259
14.41950,3146
14.42577,3312
14.43202,3605
14.43827,3662
14.44453,3124
14.45078,3460
14.45703,3779
14.46330,3147
14.46955,3220
14.47580,3205
14.48207,3291
14.48832,3546
14.49457,5064
14.50083,16766
14.50708,85524
14.51333,378038
14.51960,1581501
14.52585,5294197
14.53210,8486398
14.53837,7889729
14.54462,4484450
14.55087,1582170
14.55713,486154
14.56338,193285
14.56963,108370
14.57588,73472
14.58215,57997
14.58840,54589
14.59465,76280
14.60092,142483
14.60717,233514
14.61342,278284
14.61968,236294
14.62593,147814
14.63218,84736
14.63845,52937
14.64470,37350
14.65095,29254
14.65722,24798
14.66347,22823
14.66972,18884
14.67598,16895
14.68223,16073
14.68848,15001
14.69475,14659
14.70100,12989
14.70725,11924
14.71352,11006
14.71977,11587
14.72602,11134
14.73228,11398
14.73853,12517
14.74478,10308
14.75105,9825
14.75730,8002
14.76355,8138
14.76982,8391
14.77607,8434
14.78232,8149
14.78857,7953
14.79483,7467
14.80108,8868
14.80733,8507
14.81360,7753
14.81985,8241
14.82610,7088
14.83237,6660
14.83862,6922
14.84487,7133
14.85113,6782
14.85738,7004
14.86363,6818
14.86990,6769
14.87615,7048
14.88240,5952
14.88867,6321
14.89492,6518
14.90117,6174
14.90743,6600
14.91368,5284
14.91993,6045
14.92620,5601
14.93245,6337
14.93870,5736
14.94497,5096
14.95122,6466
14.95747,6527
14.96373,6534
14.96998,6720
14.97623,5960
14.98250,6139
14.98875,6088
14.99500,5892
15.00127,5758
15.00752,5780
15.01377,5780
15.02002,5115
15.02628,4915
15.03253,4371
15.03878,5342
15.04505,4527
15.05130,5550
15.05755,5076
15.06382,4972
15.07007,5073
15.07632,5252
15.08258,4878
15.08883,4427
15.09508,5042
15.10135,4450
15.10760,4361
15.11385,4359
15.12012,4355
15.12637,4500
15.13262,4211
15.13888,4386
15.14513,5056
15.15138,4386
15.15765,4623
15.16390,4531
15.17015,4748
15.17642,4056
15.18267,4026
15.18892,3970
15.19518,4262
15.20143,4554
15.20768,4746
15.21395,4539
15.22020,3817
15.22645,4453
15.23270,4375
15.23897,3709
15.24522,4153
15.25147,4748
15.25773,3972
15.26398,5056
15.27023,4747
15.27650,5022
15.28275,5185
15.28900,5443
15.29527,4390
15.30152,4830
15.30777,4238
15.31403,5203
15.32028,5532
15.32653,6497
15.33280,7066
15.33905,7307
15.34530,6834
15.35157,6168
15.35782,6139
15.36407,5569
15.37033,5124
15.37658,4847
15.38283,4307
15.38910,4152
15.39535,4148
15.40160,3953
15.40787,5065
15.41412,5854
15.42037,6304
15.42663,7527
15.43288,6559
15.43913,7486
15.44538,8488
15.45165,8480
15.45790,7634
15.46415,7772
15.47042,6623
15.47667,4697
15.48292,4915
15.48918,5519
15.49543,5028
15.50168,6420
15.50795,4910
15.51420,5728
15.52045,5352
15.52672,6151
15.53297,7109
15.53922,7362
15.54548,6534
15.55173,6296
15.55798,4939
15.56425,6266
15.57050,5407
15.57675,6859
15.58302,6289
15.58927,5526
15.59552,4812
15.60178,4670
15.60803,5756
15.61428,5095
15.62055,4651
15.62680,4639
15.63305,4095
15.63932,3363
15.64557,4263
15.65182,4618
15.65808,5886
15.66433,6063
15.67058,6217
15.67683,5258
15.68310,4860
15.68935,4476
15.69560,3955
15.70187,4797
15.70812,5239
15.71437,5417
15.72063,4975
15.72688,4836
15.73313,4971
15.73940,3831
15.74565,4720
15.75190,3692
15.75817,4087
15.76442,4339
15.77067,3552
15.77693,4303
15.78318,3257
15.78943,3930
15.79570,4982
15.80195,5723
15.80820,6605
15.81447,5795
15.82072,5104
15.82697,4281
15.83323,4911
15.83948,3767
15.84573,4124
15.85200,3731
15.85825,3912
15.86450,4099
15.87077,4639
15.87702,5052
15.88327,4252
15.88952,4153
15.89578,3917
15.90203,3920
15.90828,3690
15.91455,3516
15.92080,3903
15.92705,4018
15.93332,3447
15.93957,3364
15.94582,3739
15.95208,3932
15.95833,3797
15.96458,3916
15.97085,4460
15.97710,6448
15.98335,6743
15.98962,6201
15.99587,5371
16.00212,4615
16.00838,4438
16.01463,3622
16.02088,3593
16.02715,4243
16.03340,3060
16.03965,3711
16.04592,3530
16.05217,3489
16.05842,3492
16.06468,3233
16.07093,3176
16.07718,3053
16.08345,2923
16.08970,3747
16.09595,3190
16.10222,3721
16.10847,2878
16.11472,3932
16.12097,3685
16.12723,4082
16.13348,2676
16.13973,3404
16.14600,3695
16.15225,3725
16.15850,2998
16.16477,3725
16.17102,3279
16.17727,3743
16.18353,3269
16.18978,3795
16.19603,3624
16.20230,3645
16.20855,3799
16.21480,4025
16.22107,3788
16.22732,3304
16.23357,3278
16.23983,3790
16.24608,3934
16.25233,3565
16.25860,3143
16.26485,3734
16.27110,3596
16.27737,3924
16.28362,4377
16.28987,3340
16.29613,3711
16.30238,3615
16.30863,4043
16.31490,3574
16.32115,3617
16.32740,3230
16.33365,3385
16.33992,3187
16.34617,3234
16.35242,3307
16.35868,3513
16.36493,3227
16.37118,3886
16.37745,4006
16.38370,4041
16.38995,3983
16.39622,3722
16.40247,4194
16.40872,3819
16.41498,3875
16.42123,3541
16.42748,3586
16.43375,3267
16.44000,3293
16.44625,3944
16.45252,3899
16.45877,3647
16.46502,2766
16.47128,3935
16.47753,3317
16.48378,4054
16.49005,3053
16.49630,3649
16.50255,3226
16.50882,2976
16.51507,4067
16.52132,3251
16.52758,3145
16.53383,3332
16.54008,3284
16.54635,3025
16.55260,3711
16.55885,3748
16.56510,3400
16.57137,3090
16.57762,3287
16.58387,3804
16.59013,2831
16.59638,3217
16.60263,3370
16.60890,3327
16.61515,4014
16.62140,3636
16.62767,3488
16.63392,3446
16.64017,4145
16.64643,3603
16.65268,4580
16.65893,4573
16.66520,3897
16.67145,4641
16.67770,4428
16.68397,7130
16.69022,11115
16.69647,13472
16.70273,13001
16.70898,10013
16.71523,7738
16.72150,4993
16.72775,4463
16.73400,4307
16.74027,3963
16.74652,3365
16.75277,4333
16.75903,4494
16.76528,4934
16.77153,4149
16.77778,3925
16.78405,3392
16.79030,3970
16.79655,4248
16.80282,4143
16.80907,4209
16.81532,3964
16.82158,4331
16.82783,3327
16.83408,3791
16.84035,3118
16.84660,3244
16.85285,4003
16.85912,4271
16.86537,4140
16.87162,3873
16.87788,3315
16.88413,3520
16.89038,3844
16.89665,3661
16.90290,3767
16.90915,3523
16.91542,4225
16.92167,4028
16.92792,4480
16.93418,3464
16.94043,2959
16.94668,3628
16.95295,4254
16.95920,3518
16.96545,3483
16.97172,3813
16.97797,3612
16.98422,3988
16.99048,4007
16.99673,4110
17.00298,4099
17.00923,3789
17.01550,3616
17.02175,3725
17.02800,3813
17.03427,3885
17.04052,4460
17.04677,3953
17.05303,4049
17.05928,4107
17.06553,3498
17.07180,4184
17.07805,3901
17.08430,3830
17.09057,3651
17.09682,3983
17.10307,4297
17.10933,3904
17.11558,3655
17.12183,3951
17.12810,3747
17.13435,3243
17.14060,3249
17.14687,4161
17.15312,3945
17.15937,3558
17.16563,4602
17.17188,4092
17.17813,4103
17.18440,3800
17.19065,3215
17.19690,4367
17.20317,3799
17.20942,4267
17.21567,4005
17.22192,3725
17.22818,3934
17.23443,4076
17.24068,3987
17.24695,4008
17.25320,3445
17.25945,4238
17.26572,4173
17.27197,3857
17.27822,3544
17.28448,3625
17.29073,4372
17.29698,6042
17.30325,5711
17.30950,5741
17.31575,6162
17.32202,4847
17.32827,5174
17.33452,5037
17.34078,4442
17.34703,4903
17.35328,5241
17.35955,4711
17.36580,4403
17.37205,4317
17.37832,4225
17.38457,3901
17.39082,4311
17.39708,4835
17.40333,4513
17.40958,4495
17.41585,4458
17.42210,3892
17.42835,4776
17.43460,4205
17.44087,4487
17.44712,5018
17.45337,4492
17.45963,4742
17.46588,4387
17.47213,4090
17.47840,4573
17.48465,4534
17.49090,4876
17.49717,4310
17.50342,4331
17.50967,4639
17.51593,4131
17.52218,5251
17.52843,6075
17.53470,6756
17.54095,7001
17.54720,5143
17.55347,5086
17.55972,5416
17.56597,4273
17.57223,4415
17.57848,5274
17.58473,4600
17.59100,4033
17.59725,4232
17.60350,4729
17.60977,4534
17.61602,4921
17.62227,4777
17.62853,5233
17.63478,5511
17.64103,5177
17.64730,4936
17.65355,5182
17.65980,4489
17.66605,5614
17.67232,4690
17.67857,5024
17.68482,5515
17.69108,4339
17.69733,4686
17.70358,5216
17.70985,5106
17.71610,4818
17.72235,5535
17.72862,5151
17.73487,4942
17.74112,4962
17.74738,4839
17.75363,4606
17.75988,5035
17.76615,5086
17.77240,5190
17.77865,5436
17.78492,5663
17.79117,5377
17.79742,5259
17.80368,5679
17.80993,5279
17.81618,5232
17.82245,5478
17.82870,5908
17.83495,6670
17.84122,12784
17.84747,33443
17.85372,86577
17.85998,162160
17.86623,204236
17.87248,185398
17.87873,129480
17.88500,70934
17.89125,40587
17.89750,28734
17.90377,25451
17.91002,24317
17.91627,24010
17.92253,24645
17.92878,23497
17.93503,21561
17.94130,18565
17.94755,16879
17.95380,16667
17.96007,16519
17.96632,15283
17.97257,15288
17.97883,14100
17.98508,14415
17.99133,14947
17.99760,14297
18.00385,14310
18.01010,15096
18.01637,14609
18.02262,13794
18.02887,14025
18.03513,13394
18.04138,13878
18.04763,14361
18.05390,13937
18.06015,14440
18.06640,13898
18.07267,13838
18.07892,12505
18.08517,14252
18.09142,14249
18.09768,13109
18.10393,12893
18.11018,13519
18.11645,14429
18.12270,14823
18.12895,13555
18.13522,14033
18.14147,14514
18.14772,14450
18.15398,12580
18.16023,13593
18.16648,14685
18.17275,13915
18.17900,14494
18.18525,14623
18.19152,14622
18.19777,14597
18.20402,13823
18.21028,14989
18.21653,13746
18.22278,13402
18.22905,14764
18.23530,14993
18.24155,14965
18.24782,15321
18.25407,15682
18.26032,15098
18.26658,15157
18.27283,16471
18.27908,15779
18.28535,16581
18.29160,17422
18.29785,16648
18.30412,16776
18.31037,15875
18.31662,15718
18.32287,14878
18.32913,16422
18.33538,15413
18.34163,16071
18.34790,15901
18.35415,16669
18.36040,16351
18.36667,16251
18.37292,14640
18.37917,15566
18.38543,16615
18.39168,15746
18.39793,16449
18.40420,17875
18.41045,16023
18.41670,16821
18.42297,16250
18.42922,16891
18.43547,15925
18.44173,18262
18.44798,16838
18.45423,17771
18.46050,17286
18.46675,16182
18.47300,17506
18.47927,17627
18.48552,16519
18.49177,17627
18.49803,15471
18.50428,17731
18.51053,17039
18.51680,16909
18.52305,18185
18.52930,16652
18.53555,17306
18.54182,17707
18.54807,17115
18.55432,16704
18.56058,16289
18.56683,18162
18.57308,15373
18.57935,16247
18.58560,17204
18.59185,17011
18.59812,17068
18.60437,16998
18.61062,18822
18.61688,16673
18.62313,18078
18.62938,16729
18.63565,16059
18.64190,16838
18.64815,15954
18.65442,17083
18.66067,16761
18.66692,15645
18.67318,15953
18.67943,16882
18.68568,15785
18.69195,16241
18.69820,16605
18.70445,15945
18.71072,15455
18.71697,14902
18.72322,16917
18.72948,16401
18.73573,15108
18.74198,14275
18.74823,14510
18.75450,14661
18.76075,13937
18.76700,14628
18.77327,15742
18.77952,14579
18.78577,14208
18.79203,14712
18.79828,12864
18.80453,13464
18.81080,14718
18.81705,13609
18.82330,13424
18.82957,12809
18.83582,12586
18.84207,13389
18.84833,12413
18.85458,12550
18.86083,11823
18.86710,12410
18.87335,12992
18.87960,11612
18.88587,11159
18.89212,11949
18.89837,11693
18.90463,10956
18.91088,9897
18.91713,10071
18.92340,10836
18.92965,10767
18.93590,10385
18.94217,9760
18.94842,10877
18.95467,11184
18.96093,11196
18.96718,12447
18.97343,12485
18.97968,10356
18.98595,8027
18.99220,9438
18.99845,9395
19.00472,8762
19.01097,8127
19.01722,8951
19.02348,7635
19.02973,8481
19.03598,8263
19.04225,8690
19.04850,7976
19.05475,7138
19.06102,9573
19.06727,7045
19.07352,7567
19.07978,7811
19.08603,7866
19.09228,7597
19.09855,8723
19.10480,7715
19.11105,7762
19.11732,7204
19.12357,7326
19.12982,7556
19.13608,7044
19.14233,6484
19.14858,5485
19.15485,6048
19.16110,5731
19.16735,5506
19.17362,4630
19.17987,6120
19.18612,5644
19.19238,5621
19.19863,6800
19.20488,7703
19.21113,6307
19.21740,5721
19.22365,6565
19.22990,6243
19.23617,5519
19.24242,6211
19.24867,4893
19.25493,5808
19.26118,6089
19.26743,6225
19.27370,4623
19.27995,4749
19.28620,4933
19.29247,5050
19.29872,5030
19.30497,4738
19.31123,4484
19.31748,4100
19.32373,5532
19.33000,5141
19.33625,4257
19.34250,4725
19.34877,4213
19.35502,4433
19.36127,4875
19.36753,3885
19.37378,4189
19.38003,4047
19.38630,4783
19.39255,4193
19.39880,4447
19.40507,4236
19.41132,3955
19.41757,4531
19.42382,4414
19.43008,4729
19.43633,3836
19.44258,4372
19.44885,4201
19.45510,4022
19.46135,4028
19.46762,5050
19.47387,4784
19.48012,4181
19.48638,4325
19.49263,4460
19.49888,5000
19.50515,5046
19.51140,4622
19.51765,4503
19.52392,4030
19.53017,4687
19.53642,4481
19.54268,4576
19.54893,4272
19.55518,4109
19.56145,4468
19.56770,4241
19.57395,4676
19.58022,4222
19.58647,4052
19.59272,4948
19.59898,4210
19.60523,4227
19.61148,4524
19.61775,4029
19.62400,3822
19.63025,4253
19.63652,4266
19.64277,4286
19.64902,3505
19.65527,3499
19.66153,4078
19.66778,3620
19.67403,3802
19.68030,4080
19.68655,3997
19.69280,4077
19.69907,3669
19.70532,4022
19.71157,3896
19.71783,3894
19.72408,3425
19.73033,3280
19.73660,3610
19.74285,4552
19.74910,3715
19.75537,3669
19.76162,3784
19.76787,3730
19.77413,4391
19.78038,3804
19.78663,4327
19.79290,4014
19.79915,3442
19.80540,3878
19.81167,3161
19.81792,3628
19.82417,4001
19.83043,3744
19.83668,4029
19.84293,3821
19.84920,4020
19.85545,3753
19.86170,3314
19.86795,3597
19.87422,4008
19.88047,2974
19.88672,3709
19.89298,3758
19.89923,3817
19.90548,3172
19.91175,3849
19.91800,3596
19.92425,3162
19.93052,3411
19.93677,3458
19.94302,3969
19.94928,3621
19.95553,3779
19.96178,3444
19.96805,3196
19.97430,3423
19.98055,3156
19.98682,3523
19.99307,4054
19.99932,4201
20.00558,3741
20.01183,4668
20.01808,3892
20.02435,3406
20.03060,3326
20.03685,3659
20.04312,3334
20.04937,3036
20.05562,3697
20.06188,3506
20.06813,3083
20.07438,3559
20.08063,3460
20.08690,3465
20.09315,3846
20.09940,3727
20.10567,3107
20.11192,3759
20.11817,3926
20.12443,3876
20.13068,3924
20.13693,3639
20.14320,3876
20.14945,3069
20.15570,4181
20.16197,4452
20.16822,2996
20.17447,3540
20.18073,3657
20.18698,4252
20.19323,3542
20.19950,3711
20.20575,4050
20.21200,3688
20.21827,4064
20.22452,3722
20.23077,4478
20.23703,4613
20.24328,5059
20.24953,4724
20.25580,5844
20.26205,5832
20.26830,4753
20.27457,4184
20.28082,3701
20.28707,3707
20.29333,2768
20.29958,3865
20.30583,3267
20.31208,3734
20.31835,3989
20.32460,3823
20.33085,3278
20.33712,4467
20.34337,3500
20.34962,3708
20.35588,3383
20.36213,3753
20.36838,4052
20.37465,4591
20.38090,4844
20.38715,5508
20.39342,6150
20.39967,5401
20.40592,4612
20.41218,3901
20.41843,3557
20.42468,3410
20.43095,3322
20.43720,3570
20.44345,3978
20.44972,3299
20.45597,3338
20.46222,4011
20.46848,3778
20.47473,4269
20.48098,3710
20.48725,4108
20.49350,3498
20.49975,3797
20.50602,3837
20.51227,4133
20.51852,3449
20.52477,3401
20.53103,3734
20.53728,4027
20.54353,4326
20.54980,3952
20.55605,3850
20.56230,3857
20.56857,4527
20.57482,3336
20.58107,3409
20.58733,3791
20.59358,3988
20.59983,4146
20.60610,3669
20.61235,4707
20.61860,3491
20.62487,4092
20.63112,3635
20.63737,3668
20.64363,3892
20.64988,4001
20.65613,3569
20.66240,3707
20.66865,3941
20.67490,3810
20.68117,3363
20.68742,3673
20.69367,3777
20.69993,3377
20.70618,3276
20.71243,3430
20.71870,3344
20.72495,4222
20.73120,3579
20.73745,3689
20.74372,4278
20.74997,3741
20.75622,3671
20.76248,3644
20.76873,4368
20.77498,3619
20.78125,4263
20.78750,3940
20.79375,4565
20.80002,3567
20.80627,3405
20.81252,3917
20.81878,3706
20.82503,3595
20.83128,3648
20.83755,4114
20.84380,4251
20.85005,3940
20.85632,3597
20.86257,3536
20.86882,3815
20.87508,4190
20.88133,5564
20.88758,6423
20.89385,6306
20.90010,6038
20.90635,5609
20.91262,4307
20.91887,4270
20.92512,3861
20.93138,3683
20.93763,3738
20.94388,4574
20.95015,3976
20.95640,3781
20.96265,3732
20.96890,3750
20.97517,4330
20.98142,3802
20.98767,4323
20.99393,3806
21.00018,3971
21.00643,4396
21.01270,4326
21.01895,4010
21.02520,4130
21.03147,4431
21.03772,4484
21.04397,5530
21.05023,5958
21.05648,7217
21.06273,6176
21.06900,5193
21.07525,5025
21.08150,4732
21.08777,4836
21.09402,4165
21.10027,3942
21.10653,4257
21.11278,4822
21.11903,4025
21.12530,4152
21.13155,5195
21.13780,4021
21.14407,4493
21.15032,4968
21.15657,4680
21.16283,4895
21.16908,5187
21.17533,5044
21.18158,4861
21.18785,3870
21.19410,3923
21.20035,3656
21.20662,3935
21.21287,5186
21.21912,4768
21.22538,4506
21.23163,4901
21.23788,3856
21.24415,4141
21.25040,4245
21.25665,4203
21.26292,4520
21.26917,4468
21.27542,5080
21.28168,3962
21.28793,5090
21.29418,4212
21.30045,4647
21.30670,4676
21.31295,4533
21.31922,4203
21.32547,5657
21.33172,4513
21.33798,5453
21.34423,6317
21.35048,5341
21.35675,4837
21.36300,5441
21.36925,5628
21.37552,4606
21.38177,4722
21.38802,4689
21.39427,3960
21.40053,4791
21.40678,4728
21.41303,5136
21.41930,4710
21.42555,4407
21.43180,5539
21.43807,6768
21.44432,6107
21.45057,6358
21.45683,7026
21.46308,6374
21.46933,4806
21.47560,4698
21.48185,4508
21.48810,4963
21.49437,5047
21.50062,5121
21.50687,4440
21.51313,4493
21.51938,4386
21.52563,4160
21.53190,4555
21.53815,4705
21.54440,4545
21.55067,4665
21.55692,4838
21.56317,4584
21.56943,4928
21.57568,4306
21.58193,5029
21.58820,4493
21.59445,5092
21.60070,4963
21.60697,4730
21.61322,5287
21.61947,4539
21.62572,5312
21.63198,4632
21.63823,4874
21.64448,5103
21.65075,4542
21.65700,4660
21.66325,5626
21.66952,5284
21.67577,4456
21.68202,5727
21.68828,6997
21.69453,7144
21.70078,7136
21.70705,5326
21.71330,5662
21.71955,4925
21.72582,5233
21.73207,5352
21.73832,5192
21.74458,5620
21.75083,5109
21.75708,4752
21.76335,5585
21.76960,5154
21.77585,4799
21.78212,5815
21.78837,5482
21.79462,6967
21.80088,8753
21.80713,10547
21.81338,9549
21.81965,7309
21.82590,5495
21.83215,5547
21.83840,5109
21.84467,5282
21.85092,5554
21.85717,5640
21.86343,4434
21.86968,5591
21.87593,4939
21.88220,6454
21.88845,4989
21.89470,5896
21.90097,5261
21.90722,5423
21.91347,5431
21.91973,5094
21.92598,5069
21.93223,4819
21.93850,5718
21.94475,4947
21.95100,5153
21.95727,5812
21.96352,5342
21.96977,5531
21.97603,5549
21.98228,4669
21.98853,5248
21.99480,5919
22.00105,5544
22.00730,5869
22.01357,5982
22.01982,5899
22.02607,5872
22.03233,5752
22.03858,5990
22.04483,5683
22.05110,6064
22.05735,5162
22.06360,6207
22.06985,6413
22.07612,7153
22.08237,7960
22.08862,6793
22.09488,7028
22.10113,5986
22.10738,5658
22.11365,6045
22.11990,6172
22.12615,6483
22.13242,6233
22.13867,5609
22.14492,5770
22.15118,5964
22.15743,5113
22.16368,5135
22.16995,5636
22.17620,5856
22.18245,5865
22.18872,6182
22.19497,5921
22.20122,5620
22.20748,5700
22.21373,6009
22.21998,5763
22.22625,5759
22.23250,6599
22.23875,6340
22.24502,6135
22.25127,6548
22.25752,5607
22.26378,6136
22.27003,6990
22.27628,6646
22.28255,6048
22.28880,5759
22.29505,6157
22.30130,6057
22.30757,6174
22.31382,5739
22.32007,5992
22.32633,7169
22.33258,5670
22.33883,6659
22.34510,5388
22.35135,6059
22.35760,6388
22.36387,5856
22.37012,6044
22.37637,7411
22.38263,6539
22.38888,5563
22.39513,6474
22.40140,7291
22.40765,7504
22.41390,6407
22.42017,7948
22.42642,7212
22.43267,6482
22.43893,7038
22.44518,6693
22.45143,7023
22.45770,6399
22.46395,7042
22.47020,7318
22.47647,6408
22.48272,7156
22.48897,7290
22.49523,6645
22.50148,6086
22.50773,7354
22.51398,6983
22.52025,6180
22.52650,7163
22.53275,7529
22.53902,6644
22.54527,7357
22.55152,7092
22.55778,8335
22.56403,9577
22.57028,10088
22.57655,10486
22.58280,11076
22.58905,10909
22.59532,10151
22.60157,8817
22.60782,9425
22.61408,7834
22.62033,7216
22.62658,7135
22.63285,7368
22.63910,7742
22.64535,7276
22.65162,9669
22.65787,10053
22.66412,10741
22.67038,10804
22.67663,11105
22.68288,11677
22.68915,13865
22.69540,13980
22.70165,12170
22.70792,9374
22.71417,8443
22.72042,8594
22.72667,7520
22.73293,6791
22.73918,8655
22.74543,9945
22.75170,8947
22.75795,9354
22.76420,8347
22.77047,8478
22.77672,7768
22.78297,9065
22.78923,7909
22.79548,8795
22.80173,7913
22.80800,9436
22.81425,8687
22.82050,9706
22.82677,10090
22.83302,10179
22.83927,8883
22.84553,8957
22.85178,8598
22.85803,8279
22.86430,8134
22.87055,8990
22.87680,7957
22.88307,8244
22.88932,8127
22.89557,7640
22.90183,8471
22.90808,8507
22.91433,8584
22.92060,8799
22.92685,8705
22.93310,8381
22.93937,8281
22.94562,7440
22.95187,7822
22.95812,9253
22.96438,7794
22.97063,8889
22.97688,8501
22.98315,8153
22.98940,7522
22.99565,8418
23.00192,7811
23.00817,9578
23.01442,8921
23.02068,8734
23.02693,9246
23.03318,8381
23.03945,8628
23.04570,9595
23.05195,8128
23.05822,8696
23.06447,8861
23.07072,9013
23.07698,9333
23.08323,9292
23.08948,9098
23.09575,8629
23.10200,9089
23.10825,8933
23.11452,9509
23.12077,8478
23.12702,8332
23.13328,9375
23.13953,9667
23.14578,9552
23.15205,10044
23.15830,8636
23.16455,8617
23.17080,9371
23.17707,9968
23.18332,8354
23.18957,8606
23.19583,8961
23.20208,9507
23.20833,9195
23.21460,8600
23.22085,9939
23.22710,9956
23.23337,9554
23.23962,9995
23.24587,8854
23.25213,8921
23.25838,10174
23.26463,10284
23.27090,8660
23.27715,9370
23.28340,9576
23.28967,9369
23.29592,9890
23.30217,10288
23.30843,9954
23.31468,8743
23.32093,9355
23.32720,9527
23.33345,8862
23.33970,8162
23.34597,10248
23.35222,9442
23.35847,10018
23.36473,9831
23.37098,9711
23.37723,9866
23.38348,10042
23.38975,8925
23.39600,9289
23.40225,10364
23.40852,9054
23.41477,10318
23.42102,10157
23.42728,10055
23.43353,9813
23.43978,11245
23.44605,11498
23.45230,11883
23.45855,11071
23.46482,11140
23.47107,11108
23.47732,10317
23.48358,11098
23.48983,10149
23.49608,10624
23.50235,10298
23.50860,11370
23.51485,10772
23.52112,10432
23.52737,12141
23.53362,10375
23.53988,12074
23.54613,12556
23.55238,13757
23.55865,13293
23.56490,11370
23.57115,11876
23.57742,10858
23.58367,11306
23.58992,11156
23.59618,9659
23.60243,11092
23.60868,13091
23.61493,14657
23.62120,14792
23.62745,14928
23.63370,13277
23.63997,13292
23.64622,12438
23.65247,11854
23.65873,12090
23.66498,11622
23.67123,11660
23.67750,11973
23.68375,11421
23.69000,11332
23.69627,11077
23.70252,10737
23.70877,11058
23.71503,11195
23.72128,11106
23.72753,11277
23.73380,11333
23.74005,11477
23.74630,11717
23.75257,11867
23.75882,10282
23.76507,13390
23.77133,12595
23.77758,11498
23.78383,11458
23.79010,11854
23.79635,12534
23.80260,12877
23.80887,12236
23.81512,11608
23.82137,12463
23.82762,12270
23.83388,13279
23.84013,11774
23.84638,11742
23.85265,12496
23.85890,12909
23.86515,11294
23.87142,11950
23.87767,12062
23.88392,12597
23.89018,12644
23.89643,12545
23.90268,11885
23.90895,12703
23.91520,12662
23.92145,12384
23.92772,12033
23.93397,12490
23.94022,12521
23.94648,13268
23.95273,12974
23.95898,13593
23.96525,12506
23.97150,13835
23.97775,12428
23.98402,13818
23.99027,13596
23.99652,13118
24.00278,12456
24.00903,13483
24.01528,13588
24.02155,14191
24.02780,13571
24.03405,14854
24.04030,13407
24.04657,13475
24.05282,14480
24.05907,12733
24.06533,12467
24.07158,15563
24.07783,17687
24.08410,21329
24.09035,23826
24.09660,24422
24.10287,23096
24.10912,17667
24.11537,15995
24.12163,13736
24.12788,14529
24.13413,13852
24.14040,14361
24.14665,14903
24.15290,12998
24.15917,15250
24.16542,16655
24.17167,18461
24.17793,18892
24.18418,17540
24.19043,16501
24.19670,15932
24.20295,14911
24.20920,16406
24.21547,14392
24.22172,16652
24.22797,14896
24.23423,16093
24.24048,15120
24.24673,14268
24.25300,15410
24.25925,15895
24.26550,15096
24.27175,15847
24.27802,16415
24.28427,15797
24.29052,14021
24.29678,15309
24.30303,15370
24.30928,15075
24.31555,15531
24.32180,15231
24.32805,15288
24.33432,14228
24.34057,14965
24.34682,15237
24.35308,16043
24.35933,15482
24.36558,17067
24.37185,15567
24.37810,16686
24.38435,14317
24.39062,16013
24.39687,15458
24.40312,16870
24.40938,14534
24.41563,15591
24.42188,17169
24.42815,15955
24.43440,16626
24.44065,15865
24.44692,17618
24.45317,16622
24.45942,16544
24.46568,15697
24.47193,16154
24.47818,16546
24.48443,16038
24.49070,16555
24.49695,16538
24.50320,18568
24.50947,15897
24.51572,16550
24.52197,17035
24.52823,17087
24.53448,17883
24.54073,18408
24.54700,19196
24.55325,18582
24.55950,16438
24.56577,16395
24.57202,16917
24.57827,16903
24.58453,18493
24.59078,17708
24.59703,20248
24.60330,19028
24.60955,20832
24.61580,18722
24.62207,19079
24.62832,20227
24.63457,18128
24.64083,17952
24.64708,19740
24.65333,19875
24.65960,20170
24.66585,20299
24.67210,19048
24.67837,19222
24.68462,18200
24.69087,19425
24.69713,18202
24.70338,17022
24.70963,18416
24.71588,19068
24.72215,19601
24.72840,18428
24.73465,17117
24.74092,19319
24.74717,17568
24.75342,19177
24.75968,20660
24.76593,20392
24.77218,18757
24.77845,18926
24.78470,19207
24.79095,18754
24.79722,19502
24.80347,19828
24.80972,21085
24.81598,20095
24.82223,19366
24.82848,20474
24.83475,20197
24.84100,18893
24.84725,20127
24.85352,19487
24.85977,19587
24.86602,18901
24.87228,20204
24.87853,20081
24.88478,20074
24.89105,20496
24.89730,19420
24.90355,20871
24.90982,20691
24.91607,18609
24.92232,20670
24.92857,21085
24.93483,20284
24.94108,20710
24.94733,20510
24.95360,19629
24.95985,21088
24.96610,21018
24.97237,20591
24.97862,22187
24.98487,20157
24.99113,20096
24.99738,21780
25.00363,22415
25.00990,21484
25.01615,22152
25.02240,22390
25.02867,20829
25.03492,21709
25.04117,20004
25.04743,22027
25.05368,23388
25.05993,22671
25.06620,22012
25.07245,22100
25.07870,21563
25.08497,22116
25.09122,21966
25.09747,22363
25.10373,21957
25.10998,22960
25.11623,22676
25.12250,23144
25.12875,23170
25.13500,22848
25.14127,23498
25.14752,23927
25.15377,24587
25.16002,22852
25.16628,24133
25.17253,23736
25.17878,21882
25.18505,24343
25.19130,24531
25.19755,24407
25.20382,23632
25.21007,23374
25.21632,23107
25.22258,25276
25.22883,23843
25.23508,25133
25.24135,23046
25.24760,23693
25.25385,24384
25.26012,23300
25.26637,24324
25.27262,24612
25.27888,26075
25.28513,24867
25.29138,24301
25.29765,24499
25.30390,27333
25.31015,24075
25.31642,25205
25.32267,23881
25.32892,24197
25.33518,26053
25.34143,26352
25.34768,26000
25.35395,25045
25.36020,25764
25.36645,25306
25.37270,26910
25.37897,26969
25.38522,25928
25.39147,26786
25.39773,26190
25.40398,27471
25.41023,29466
25.41650,34361
25.42275,45238
25.42900,50502
25.43527,49775
25.44152,42449
25.44777,35101
25.45403,31363
25.46028,27823
25.46653,30330
25.47280,26923
25.47905,26956
25.48530,28662
25.49157,27227
25.49782,29876
25.50407,30166
25.51033,30141
25.51658,29363
25.52283,31590
25.52910,28761
25.53535,31156
25.54160,30643
25.54787,27064
25.55412,29397
25.56037,29133
25.56663,30604
25.57288,30313
25.57913,29157
25.58540,30060
25.59165,29056
25.59790,28227
25.60415,33224
25.61042,30170
25.61667,30711
25.62292,31679
25.62918,30704
25.63543,32256
25.64168,32329
25.64795,31034
25.65420,31673
25.66045,31397
25.66672,31518
25.67297,31549
25.67922,31067
25.68548,30894
25.69173,33106
25.69798,34275
25.70425,30485
25.71050,32932
25.71675,30972
25.72302,31874
25.72927,32669
25.73552,32600
25.74178,31660
25.74803,31303
25.75428,30869
25.76055,31212
25.76680,34080
25.77305,31586
25.77932,32827
25.78557,31736
25.79182,32860
25.79808,34682
25.80433,33813
25.81058,35060
25.81683,33599
25.82310,33737
25.82935,34200
25.83560,34951
25.84187,33334
25.84812,33699
25.85437,33507
25.86063,34813
25.86688,33907
25.87313,35681
25.87940,34799
25.88565,33739
25.89190,33750
25.89817,33722
25.90442,33826
25.91067,35573
25.91693,35420
25.92318,35784
25.92943,36019
25.93570,35212
25.94195,35022
25.94820,34434
25.95447,35372
25.96072,35964
25.96697,37325
25.97323,35082
25.97948,36601
25.98573,37200
25.99200,37305
25.99825,36539
26.00450,37645
26.01077,36182
26.01702,37519
26.02327,37311
26.02952,36530
26.03578,36848
26.04203,36391
26.04828,36834
26.05455,38058
26.06080,38731
26.06705,36720
26.07332,39464
26.07957,37895
26.08582,38204
26.09208,38037
26.09833,38355
26.10458,38931
26.11085,37131
26.11710,38399
26.12335,40714
26.12962,40994
26.13587,38042
26.14212,38619
26.14838,40281
26.15463,39808
26.16088,40226
26.16715,40378
26.17340,39008
26.17965,39634
26.18592,40689
26.19217,40628
26.19842,42200
26.20468,40635
26.21093,40710
26.21718,42215
26.22345,41504
26.22970,41483
26.23595,43688
26.24222,40961
26.24847,43240
26.25472,41732
26.26097,40526
26.26723,44182
26.27348,40732
26.27973,42227
26.28600,44461
26.29225,44154
26.29850,42932
26.30477,44122
26.31102,43147
26.31727,44255
26.32353,43815
26.32978,42437
26.33603,43182
26.34230,44261
26.34855,42995
26.35480,44712
26.36107,44061
26.36732,44501
26.37357,45440
26.37983,45937
26.38608,45289
26.39233,44953
26.39860,46906
26.40485,47312
26.41110,44914
26.41737,46366
26.42362,45532
26.42987,46049
26.43613,46374
26.44238,47357
26.44863,48750
26.45490,46764
26.46115,48423
26.46740,46042
26.47365,44880
26.47992,46170
26.48617,48889
26.49242,48488
26.49868,48231
26.50493,48055
26.51118,48290
26.51745,47307
26.52370,49891
26.52995,47682
26.53622,47654
26.54247,48237
26.54872,49981
26.55498,49947
26.56123,50668
26.56748,48249
26.57375,48821
26.58000,50549
26.58625,50296
26.59252,48848
26.59877,49548
26.60502,50521
26.61128,49792
26.61753,51545
26.62378,50458
26.63005,50046
26.63630,50240
26.64255,52357
26.64882,50632
26.65507,52735
26.66132,52832
26.66758,57378
26.67383,65949
26.68008,75121
26.68633,86716
26.69260,89965
26.69885,79304
26.70510,66918
26.71137,60153
26.71762,55597
26.72387,56651
26.73013,55640
26.73638,56441
26.74263,54601
26.74890,56733
26.75515,55258
26.76140,56813
26.76767,56990
26.77392,54286
26.78017,56542
26.78643,54489
26.79268,57382
26.79893,56164
26.80520,55857
26.81145,57560
26.81770,57894
26.82397,56157
26.83022,60407
26.83647,57126
26.84273,57750
26.84898,58652
26.85523,57854
26.86150,58387
26.86775,59898
26.87400,60930
26.88027,59817
26.88652,60695
26.89277,59897
26.89903,61768
26.90528,61531
26.91153,59281
26.91778,62054
26.92405,59232
26.93030,60581
26.93655,61023
26.94282,62750
26.94907,58626
26.95532,61477
26.96158,62595
26.96783,62200
26.97408,62621
26.98035,63713
26.98660,63546
26.99285,62430
26.99912,62513
27.00537,65509
27.01162,63676
27.01788,62764
27.02413,63972
27.03038,65925
27.03665,64718
27.04290,65883
27.04915,67022
27.05542,63668
27.06167,64986
27.06792,65849
27.07418,65154
27.08043,67643
27.08668,66991
27.09295,65274
27.09920,63673
27.10545,65513
27.11172,66326
27.11797,67924
27.12422,67873
27.13047,68611
27.13673,67764
27.14298,68264
27.14923,69465
27.15550,69105
27.16175,70326
27.16800,68310
27.17427,67155
27.18052,70651
27.18677,68439
27.19303,70702
27.19928,70771
27.20553,69999
27.21180,70620
27.21805,70705
27.22430,72713
27.23057,72154
27.23682,73164
27.24307,72461
27.24933,71673
27.25558,74062
27.26183,71666
27.26810,72800
27.27435,73392
27.28060,71880
27.28687,75370
27.29312,75331
27.29937,71600
27.30563,73916
27.31188,72121
27.31813,75170
27.32440,73286
27.33065,76476
27.33690,75953
27.34317,73804
27.34942,72989
27.35567,76471
27.36192,76354
27.36818,75909
27.37443,75298
27.38068,76956
27.38695,78832
27.39320,77115
27.39945,78325
27.40572,79157
27.41197,79688
27.41822,80663
27.42448,78398
27.43073,77258
27.43698,79564
27.44325,81352
27.44950,79065
27.45575,82156
27.46202,81249
27.46827,79261
27.47452,79404
27.48078,84450
27.48703,81387
27.49328,80466
27.49955,79519
27.50580,81144
27.51205,85086
27.51832,81166
27.52457,82472
27.53082,82291
27.53708,78990
27.54333,84193
27.54958,84861
27.55585,83564
27.56210,83493
27.56835,84938
27.57460,85329
27.58087,86734
27.58712,84527
27.59337,87144
27.59963,88422
27.60588,86720
27.61213,87355
27.61840,86858
27.62465,86967
27.63090,86708
27.63717,86616
27.64342,86651
27.64967,86392
27.65593,87859
27.66218,88622
27.66843,89203
27.67470,86192
27.68095,87126
27.68720,87456
27.69347,91875
27.69972,91160
27.70597,91872
27.71223,92435
27.71848,90093
27.72473,91219
27.73100,91704
27.73725,91483
27.74350,91279
27.74977,91225
27.75602,91324
27.76227,93481
27.76853,91412
27.77478,90993
27.78103,92945
27.78730,94119
27.79355,93721
27.79980,93441
27.80605,93979
27.81232,92920
27.81857,93205
27.82482,93998
27.83108,96331
27.83733,96891
27.84358,91047
27.84985,97616
27.85610,94050
27.86235,95578
27.86862,101713
27.87487,108496
27.88112,121028
27.88738,129402
27.89363,130804
27.89988,126078
27.90615,113859
27.91240,108987
27.91865,100969
27.92492,99679
27.93117,98117
27.93742,99727
27.94368,98328
27.94993,99978
27.95618,98591
27.96245,99434
27.96870,101240
27.97495,100594
27.98122,98611
27.98747,102536
27.99372,100885
27.99998,102368
28.00623,101300
28.01248,98697
28.01873,102750
28.02500,101078
28.03125,100202
28.03750,103308
28.04377,97926
28.05002,104724
28.05627,101585
28.06253,101704
28.06878,103574
28.07503,102131
28.08130,99247
28.08755,104432
28.09380,103081
28.10007,103046
28.10632,105281
28.11257,102086
28.11883,102481
28.12508,103566
28.13133,105318
28.13760,104234
28.14385,101842
28.15010,105871
28.15637,105037
28.16262,103678
28.16887,104521
28.17513,105074
28.18138,105214
28.18763,105606
28.19390,106309
28.20015,105529
28.20640,104417
28.21267,104433
28.21892,105512
28.22517,105820
28.23143,105265
28.23768,108778
28.24393,102757
28.25018,105784
28.25645,106455
28.26270,106192
28.26895,104303
28.27522,104727
28.28147,107116
28.28772,108492
28.29398,105364
28.30023,106067
28.30648,107936
28.31275,109025
28.31900,106349
28.32525,111042
28.33152,109306
28.33777,109261
28.34402,106311
28.35028,106650
28.35653,109952
28.36278,109497
28.36905,110748
28.37530,108283
28.38155,110937
28.38782,108380
28.39407,110052
28.40032,107399
28.40658,108023
28.41283,109051
28.41908,109395
28.42535,111225
28.43160,107824
28.43785,109052
28.44412,112022
28.45037,109056
28.45662,111496
28.46287,107803
28.46913,105928
28.47538,108281
28.48163,110687
28.48790,108255
28.49415,110343
28.50040,110725
28.50667,108648
28.51292,111070
28.51917,109542
28.52543,109122
28.53168,108426
28.53793,112535
28.54420,108527
28.55045,110051
28.55670,109682
28.56297,107910
28.56922,113665
28.57547,110363
28.58173,108096
28.58798,106835
28.59423,108520
28.60050,108732
28.60675,111319
28.61300,110691
28.61927,111531
28.62552,111014
28.63177,111692
28.63803,109392
28.64428,107729
28.65053,112379
28.65680,111979
28.66305,107869
28.66930,110810
28.67555,109751
28.68182,112143
28.68807,111119
28.69432,109750
28.70058,109612
28.70683,112432
28.71308,108931
28.71935,114029
28.72560,108965
28.73185,108794
28.73812,111367
28.74437,107896
28.75062,107841
28.75688,112960
28.76313,109762
28.76938,110592
28.77565,112629
28.78190,108777
28.78815,109562
28.79442,111938
28.80067,107969
28.80692,110675
28.81318,111859
28.81943,110077
28.82568,111007
28.83195,109797
28.83820,111247
28.84445,109068
28.85072,110282
28.85697,108725
28.86322,109147
28.86948,109999
28.87573,110171
28.88198,111742
28.88825,109928
28.89450,109430
28.90075,108445
28.90700,110136
28.91327,109638
28.91952,109206
28.92577,109824
28.93203,107523
28.93828,111077
28.94453,108706
28.95080,112203
28.95705,107124
28.96330,108585
28.96957,109068
28.97582,111697
28.98207,111994
28.98833,108885
28.99458,111396
29.00083,108910
29.00710,111584
29.01335,110266
29.01960,107214
29.02587,112594
29.03212,108939
29.03837,111390
29.04463,110143
29.05088,107968
29.05713,108857
29.06340,112658
29.06965,110739
29.07590,107724
29.08217,109987
29.08842,110580
29.09467,109108
29.10093,107862
29.10718,110372
29.11343,110358
29.11968,109617
29.12595,107856
29.13220,109835
29.13845,108313
29.14472,109508
29.15097,110086
29.15722,111888
29.16348,110029
29.16973,109587
29.17598,109974
29.18225,108964
29.18850,108821
29.19475,110733
29.20102,110946
29.20727,107877
29.21352,108840
29.21978,110200
29.22603,109234
29.23228,111110
29.23855,107055
29.24480,112289
29.25105,116472
29.25732,122907
29.26357,128242
29.26982,131509
29.27608,134461
29.28233,133959
29.28858,129654
29.29485,119527
29.30110,113660
29.30735,114534
29.31362,111623
29.31987,112385
29.32612,112584
29.33237,111676
29.33863,111123
29.34488,108992
29.35113,108401
29.35740,112394
29.36365,110515
29.36990,110988
29.37617,108501
29.38242,112025
29.38867,113101
29.39493,108485
29.40118,106858
29.40743,109974
29.41370,109860
29.41995,107438
29.42620,111699
29.43247,109945
29.43872,110266
29.44497,111898
29.45123,110218
29.45748,110115
29.46373,111212
29.47000,111055
29.47625,111392
29.48250,110360
29.48877,110856
29.49502,112252
29.50127,110975
29.50753,113137
29.51378,110997
29.52003,111990
29.52630,109456
29.53255,109929
29.53880,111711
29.54507,110400
29.55132,108788
29.55757,109698
29.56382,109447
29.57008,109357
29.57633,110362
29.58258,108004
29.58885,106490
29.59510,107195
29.60135,108628
29.60762,111392
29.61387,108154
29.62012,109839
29.62638,109712
29.63263,108755
29.63888,109969
29.64515,108891
29.65140,108921
29.65765,109730
29.66392,110078
29.67017,110224
29.67642,107053
29.68268,108657
29.68893,108304
29.69518,107016
29.70145,106229
29.70770,109315
29.71395,106989
29.72022,107155
29.72647,105299
29.73272,110166
29.73898,108153
29.74523,109575
29.75148,106597
29.75775,108933
29.76400,106216
29.77025,109026
29.77650,109762
29.78277,109181
29.78902,107081
29.79527,105309
29.80153,108436
29.80778,107048
29.81403,108920
29.82030,110747
29.82655,114997
29.83280,117061
29.83907,121146
29.84532,123813
29.85157,123534
29.85783,124543
29.86408,120818
29.87033,113723
29.87660,113271
29.88285,111951
29.88910,110941
29.89537,109735
29.90162,111574
29.90787,110862
29.91413,109795
29.92038,110819
29.92663,110887
29.93290,112145
29.93915,110771
29.94540,108875
29.95167,110781
29.95792,106450
29.96417,110848
29.97043,107861
29.97668,107980
29.98293,109586
29.98920,107876
29.99545,108032
30.00170,109438
30.00795,108197
30.01422,106639
30.02047,106912
30.02672,111386
30.03298,110030
30.03923,106414
30.04548,108212
30.05175,108836
30.05800,110912
30.06425,109495
30.07052,110534
30.07677,107078
30.08302,109806
30.08928,106639
30.09553,105178
30.10178,108965
30.10805,110611
30.11430,107000
30.12055,106375
30.12682,107543
30.13307,107463
30.13932,106532
30.14558,108697
30.15183,105722
30.15808,107681
30.16435,107329
30.17060,107179
30.17685,106961
30.18312,107337
30.18937,106111
30.19562,106262
30.20188,107714
30.20813,105416
30.21438,108484
30.22063,107770
30.22690,108491
30.23315,109018
30.23940,106306
30.24567,107183
30.25192,105805
30.25817,107939
30.26443,104535
30.27068,106675
30.27693,106885
30.28320,104961
30.28945,107430
30.29570,106392
30.30197,107037
30.30822,108988
30.31447,107295
30.32073,107485
30.32698,105925
30.33323,107511
30.33950,104876
30.34575,107892
30.35200,104718
30.35827,107975
30.36452,107750
30.37077,102980
30.37703,108773
30.38328,106254
30.38953,107830
30.39580,107069
30.40205,109420
30.40830,105287
30.41457,107599
30.42082,106780
30.42707,106961
30.43333,107458
30.43958,107366
30.44583,104324
30.45208,106270
30.45835,106340
30.46460,109120
30.47085,108843
30.47712,107600
30.48337,107981
30.48962,109997
30.49588,106706
30.50213,103437
30.50838,104492
30.51465,105740
30.52090,107253
30.52715,108182
30.53342,106322
30.53967,106493
30.54592,107676
30.55218,105074
30.55843,104006
30.56468,104968
30.57095,106368
30.57720,106940
30.58345,108577
30.58972,108961
30.59597,106863
30.60222,107845
30.60848,109004
30.61473,110915
30.62098,107342
30.62725,112277
30.63350,109921
30.63975,109004
30.64602,109827
30.65227,107610
30.65852,108709
30.66477,107366
30.67103,104979
30.67728,105425
30.68353,107336
30.68980,105506
30.69605,109320
30.70230,103242
30.70857,104827
30.71482,105233
30.72107,106966
30.72733,107334
30.73358,105797
30.73983,106379
30.74610,106750
30.75235,107820
30.75860,104135
30.76487,105704
30.77112,106646
30.77737,103735
30.78363,106306
30.78988,107149
30.79613,109639
30.80240,103908
30.80865,105232
30.81490,105452
30.82117,106558
30.82742,106661
30.83367,105430
30.83993,108067
30.84618,106092
30.85243,105137
30.85870,104859
30.86495,101499
30.87120,104558
30.87747,105860
30.88372,104305
30.88997,105709
30.89622,104137
30.90248,104261
30.90873,104751
30.91498,104966
30.92125,102655
30.92750,108954
30.93375,106725
30.94002,104447
30.94627,105825
30.95252,104633
30.95878,103193
30.96503,103596
30.97128,105266
30.97755,103079
30.98380,103635
30.99005,106817
30.99632,103852
31.00257,104849
31.00882,104306
31.01508,109756
31.02133,109207
31.02758,110582
31.03385,113728
31.04010,116473
31.04635,117215
31.05262,117049
31.05887,118564
31.06512,116308
31.07138,114720
31.07763,114276
31.08388,111183
31.09015,108742
31.09640,108324
31.10265,107214
31.10890,107378
31.11517,106341
31.12142,104661
31.12767,104609
31.13393,106563
31.14018,106565
31.14643,105379
31.15270,104853
31.15895,103814
31.16520,105075
31.17147,101295
31.17772,105989
31.18397,103885
31.19023,105061
31.19648,105452
31.20273,105574
31.20900,107847
31.21525,104139
31.22150,103981
31.22777,104664
31.23402,105469
31.24027,104240
31.24653,105475
31.25278,104076
31.25903,108539
31.26530,107107
31.27155,105337
31.27780,108450
31.28407,107210
31.29032,103819
31.29657,104447
31.30283,104014
31.30908,106634
31.31533,105665
31.32158,103662
31.32785,104055
31.33410,103788
31.34035,102679
31.34662,105090
31.35287,104890
31.35912,105145
31.36538,103455
31.37163,105051
31.37788,102320
31.38415,103745
31.39040,103173
31.39665,104600
31.40292,104737
31.40917,105693
31.41542,102964
31.42168,105369
31.42793,105000
31.43418,105952
31.44045,102922
31.44670,107196
31.45295,103918
31.45922,102218
31.46547,103328
31.47172,105701
31.47798,104098
31.48423,102355
31.49048,103897
31.49675,105171
31.50300,105835
31.50925,104249
31.51552,100214
31.52177,105439
31.52802,100589
31.53428,103904
31.54053,103855
31.54678,105371
31.55303,106030
31.55930,103923
31.56555,105270
31.57180,102269
31.57807,104288
31.58432,105202
31.59057,104184
31.59683,100336
31.60308,104217
31.60933,102877
31.61560,105085
31.62185,102102
31.62810,102432
31.63437,104587
31.64062,104062
31.64687,102503
31.65313,103827
31.65938,100792
31.66563,104506
31.67190,104466
31.67815,103105
31.68440,104859
31.69067,101102
31.69692,102720
31.70317,99374
31.70943,103311
31.71568,102838
31.72193,103769
31.72820,102194
31.73445,101224
31.74070,104290
31.74697,102699
31.75322,104016
31.75947,103096
31.76572,102624
31.77198,102559
31.77823,102437
31.78448,103877
31.79075,103547
31.79700,103124
31.80325,104611
31.80952,104208
31.81577,104220
31.82202,103395
31.82828,102433
31.83453,104079
31.84078,103595
31.84705,102533
31.85330,102265
31.85955,102372
31.86582,103573
31.87207,103614
31.87832,103883
31.88458,100755
31.89083,104188
31.89708,100990
31.90335,100521
31.90960,101316
31.91585,100376
31.92212,100098
31.92837,101518
31.93462,102918
31.94088,102408
31.94713,102002
31.95338,102347
31.95965,101910
31.96590,100821
31.97215,104031
31.97840,101574
31.98467,100868
31.99092,101397
31.99717,102673
32.00343,103536
32.00968,104740
32.01593,103531
32.02220,103284
32.02845,101975
32.03470,102081
32.04097,103414
32.04722,101777
32.05347,104832
32.05973,98574
32.06598,102029
32.07223,103239
32.07850,101271
32.08475,101354
32.09100,104377
32.09727,102244
32.10352,100797
32.10977,103316
32.11603,102360
32.12228,100793
32.12853,101507
32.13480,104518
32.14105,100734
32.14730,103328
32.15357,99676
32.15982,103959
32.16607,100153
32.17233,101521
32.17858,102975
32.18483,103146
32.19110,101490
32.19735,103242
32.20360,103889
32.20985,103382
32.21612,101501
32.22237,100666
32.22862,103268
32.23488,101342
32.24113,102411
32.24738,102421
32.25365,101438
32.25990,100783
32.26615,104648
32.27242,103974
32.27867,101934
32.28492,103426
32.29118,101171
32.29743,104181
32.30368,101896
32.30995,101668
32.31620,104564
32.32245,103102
32.32872,104281
32.33497,101741
32.34122,102280
32.34748,102671
32.35373,101987
32.35998,100797
32.36625,100968
32.37250,101846
32.37875,101108
32.38502,98993
32.39127,103677
32.39752,103675
32.40378,98177
32.41003,102293
32.41628,100051
32.42253,103627
32.42880,103812
32.43505,102640
32.44130,101733
32.44757,102462
32.45382,102212
32.46007,102237
32.46633,102795
32.47258,102743
32.47883,100319
32.48510,101678
32.49135,103411
32.49760,103017
32.50387,103291
32.51012,99579
32.51637,101492
32.52263,99113
32.52888,99554
32.53513,102524
32.54140,103665
32.54765,101264
32.55390,100769
32.56017,101326
32.56642,102608
32.57267,102393
32.57893,100728
32.58518,102630
32.59143,101575
32.59770,100334
32.60395,100705
32.61020,99002
32.61647,98198
32.62272,99309
32.62897,100740
32.63523,102305
32.64148,101971
32.64773,99855
32.65398,100930
32.66025,100326
32.66650,99764
32.67275,102546
32.67902,99278
32.68527,101425
32.69152,99780
32.69778,103482
32.70403,100426
32.71028,100468
32.71655,100025
32.72280,102120
32.72905,103493
32.73532,103581
32.74157,103661
32.74782,101275
32.75408,101616
32.76033,103651
32.76658,102044
32.77285,101751
32.77910,103031
32.78535,101114
32.79162,103731
32.79787,99964
32.80412,100016
32.81038,99382
32.81663,99317
32.82288,105837
32.82915,103094
32.83540,100324
32.84165,100750
32.84792,95845
32.85417,102673
32.86042,102948
32.86667,101224
32.87293,100620
32.87918,101285
32.88543,101105
32.89170,103083
32.89795,101330
32.90420,100479
32.91047,100177
32.91672,102572
32.92297,98534
32.92923,101151
32.93548,100179
32.94173,100474
32.94800,101216
32.95425,97371
32.96050,100134
32.96677,100717
32.97302,101764
32.97927,101480
32.98553,99740
32.99178,102977
32.99803,99068
33.00430,100364
33.01055,99721
33.01680,102439
33.02307,103241
33.02932,100197
33.03557,103794
33.04183,102121
33.04808,108086
33.05433,106674
33.06060,107942
33.06685,108665
33.07310,107793
33.07937,104384
33.08562,105428
33.09187,108929
33.09812,102962
33.10438,103524
33.11063,104144
33.11688,103739
33.12315,102914
33.12940,100282
33.13565,102055
33.14192,101770
33.14817,100787
33.15442,102754
33.16068,101095
33.16693,104767
33.17318,100414
33.17945,100729
33.18570,101320
33.19195,104828
33.19822,101562
33.20447,99380
33.21072,99330
33.21698,99896
33.22323,100144
33.22948,99530
33.23575,100893
33.24200,98827
33.24825,98663
33.25452,101881
33.26077,100882
33.26702,100148
33.27328,100487
33.27953,99564
33.28578,102933
33.29205,100864
33.29830,100175
33.30455,101476
33.31080,99959
33.31707,102791
33.32332,99143
33.32957,100475
33.33583,101416
33.34208,101363
33.34833,100664
33.35460,99241
33.36085,101775
33.36710,101653
33.37337,98527
33.37962,103020
33.38587,99393
33.39213,100430
33.39838,103861
33.40463,103433
33.41090,102070
33.41715,102462
33.42340,105588
33.42967,101878
33.43592,104812
33.44217,101849
33.44843,105354
33.45468,103297
33.46093,101481
33.46720,101714
33.47345,101291
33.47970,101287
33.48597,101229
33.49222,101910
33.49847,101443
33.50473,103053
33.51098,103651
33.51723,99840
33.52350,99997
33.52975,103188
33.53600,98302
33.54225,100870
33.54852,99745
33.55477,100658
33.56102,99557
33.56728,99781
33.57353,99802
33.57978,100853
33.58605,99022
33.59230,101187
33.59855,100658
33.60482,101025
33.61107,99634
33.61732,102288
33.62358,99654
33.62983,97920
33.63608,99485
33.64235,101275
33.64860,100115
33.65485,98491
33.66112,102203
33.66737,99885
33.67362,100879
33.67988,101605
33.68613,97099
33.69238,100749
33.69865,97555
33.70490,98895
33.71115,98782
33.71742,100184
33.72367,99041
33.72992,100993
33.73618,100229
33.74243,100529
33.74868,100558
33.75493,101956
33.76120,102585
33.76745,98508
33.77370,97754
33.77997,99375
33.78622,99093
33.79247,99875
33.79873,99788
33.80498,101255
33.81123,99344
33.81750,98144
33.82375,99064
33.83000,100162
33.83627,99430
33.84252,99079
33.84877,98180
33.85503,98022
33.86128,100322
33.86753,99104
33.87380,100847
33.88005,99533
33.88630,99712
33.89257,102445
33.89882,99465
33.90507,99796
33.91133,101837
33.91758,100269
33.92383,100190
33.93010,98625
33.93635,99855
33.94260,99482
33.94887,100933
33.95512,100809
33.96137,98764
33.96762,99492
33.97388,99861
33.98013,100747
33.98638,99315
33.99265,97978
33.99890,97834
34.00515,99071
34.01142,96977
34.01767,99085
34.02392,100913
34.03018,97402
34.03643,101987
34.04268,100003
34.04895,99481
34.05520,96104
34.06145,99275
34.06772,99689
34.07397,97605
34.08022,102321
34.08648,100182
34.09273,98713
34.09898,101201
34.10525,101501
34.11150,101746
34.11775,99424
34.12402,99409
34.13027,99224
34.13652,98060
34.14278,100699
34.14903,98149
34.15528,96605
34.16155,97639
34.16780,97240
34.17405,98304
34.18032,99622
34.18657,101628
34.19282,101044
34.19907,100832
34.20533,94795
34.21158,100303
34.21783,99347
34.22410,100271
34.23035,102239
34.23660,97802
34.24287,95168
34.24912,96646
34.25537,98980
34.26163,100359
34.26788,96693
34.27413,96591
34.28040,98205
34.28665,96248
34.29290,100115
34.29917,100880
34.30542,101248
34.31167,98328
34.31793,102113
34.32418,100562
34.33043,100379
34.33670,99254
34.34295,99373
34.34920,99255
34.35547,98328
34.36172,99360
34.36797,98679
34.37423,98733
34.38048,98191
34.38673,96992
34.39300,101109
34.39925,99362
34.40550,94046
34.41175,98309
34.41802,99463
34.42427,99965
34.43052,100722
34.43678,94450
34.44303,99607
34.44928,98508
34.45555,100143
34.46180,97104
34.46805,98955
34.47432,99828
34.48057,97546
34.48682,99394
34.49308,97762
34.49933,98218
34.50558,98812
34.51185,100076
34.51810,95756
34.52435,98196
34.53062,97209
34.53687,99975
34.54312,98896
34.54938,97830
34.55563,96518
34.56188,100539
34.56815,100808
34.57440,98135
34.58065,97057
34.58692,100961
34.59317,96929
34.59942,99462
34.60568,99190
34.61193,97726
34.61818,97799
34.62443,97445
34.63070,97862
34.63695,100489
34.64320,96658
34.64947,101536
34.65572,97724
34.66197,98814
34.66823,98154
34.67448,97546
34.68073,96903
34.68700,99116
34.69325,95543
34.69950,97146
34.70577,97341
34.71202,99627
34.71827,98352
34.72453,96824
34.73078,99091
34.73703,98610
34.74330,98782
34.74955,97299
34.75580,100618
34.76207,98301
34.76832,99151
34.77457,99293
34.78083,97379
34.78708,97800
34.79333,97633
34.79960,101185
34.80585,95915
34.81210,96368
34.81837,99691
34.82462,95966
34.83087,96614
34.83713,98135
34.84338,96935
34.84963,99936
34.85588,98067
34.86215,98168
34.86840,97116
34.87465,98455
34.88092,98367
34.88717,100715
34.89342,101657
34.89968,97940
34.90593,98210
34.91218,96543
34.91845,99030
34.92470,96317
34.93095,95452
34.93722,98966
34.94347,97543
34.94972,96018
34.95598,99877
34.96223,98155
34.96848,98725
34.97475,96953
34.98100,98372
34.98725,98373
34.99352,98855
34.99977,95043
35.00602,96690
35.01228,98903
35.01853,94238
35.02478,97519
35.03105,97290
35.03730,95773
35.04355,97646
35.04982,99732
35.05607,97562
35.06232,97926
35.06857,99100
35.07483,98348
35.08108,96720
35.08733,97353
35.09360,96609
35.09985,95953
35.10610,97239
35.11237,96390
35.11862,98326
35.12487,99151
35.13113,99391
35.13738,97892
35.14363,98535
35.14990,96539
35.15615,97902
35.16240,95568
35.16867,96052
35.17492,94832
35.18117,97371
35.18743,99936
35.19368,99597
35.19993,98523
35.20620,96926
35.21245,98211
35.21870,97853
35.22497,97801
35.23122,100266
35.23747,96073
35.24373,99850
35.24998,96545
35.25623,97927
35.26250,96392
35.26875,94938
35.27500,95503
35.28127,96576
35.28752,97729
35.29377,97287
35.30002,97206
35.30628,98161
35.31253,96597
35.31878,98373
35.32505,95619
35.33130,98300
35.33755,98524
35.34382,98619
35.35007,99012
35.35632,98039
35.36258,95435
35.36883,97547
35.37508,95621
35.38135,98120
35.38760,95920
35.39385,97396
35.40012,94550
35.40637,97425
35.41262,95032
35.41888,96727
35.42513,98422
35.43138,97240
35.43765,95104
35.44390,97482
35.45015,98240
35.45642,95696
35.46267,96794
35.46892,98372
35.47518,95683
35.48143,100020
35.48768,96022
35.49395,96460
35.50020,99432
35.50645,97647
35.51270,97284
35.51897,97590
35.52522,97676
35.53147,95987
35.53773,98889
35.54398,96070
35.55023,94632
35.55650,100239
35.56275,96670
35.56900,97101
35.57527,97398
35.58152,99101
35.58777,98485
35.59403,97389
35.60028,97614
35.60653,96560
35.61280,96554
35.61905,100293
35.62530,100767
35.63157,97994
35.63782,98832
35.64407,96278
35.65033,94768
35.65658,97972
35.66283,97732
35.66910,97219
35.67535,95696
35.68160,97645
35.68787,97146
35.69412,99569
35.70037,95105
35.70663,94337
35.71288,98386
35.71913,98394
35.72540,97860
35.73165,97035
35.73790,97319
35.74415,95038
35.75042,95878
35.75667,95386
35.76292,96753
35.76918,94051
35.77543,96588
35.78168,99086
35.78795,93158
35.79420,95259
35.80045,98033
35.80672,97551
35.81297,97288
35.81922,97654
35.82548,96451
35.83173,98425
35.83798,95401
35.84425,95087
35.85050,96280
35.85675,96275
35.86302,93655
35.86927,97483
35.87552,95274
35.88178,95371
35.88803,95796
35.89428,95695
35.90055,96715
35.90680,95833
35.91305,95563
35.91932,99101
35.92557,95764
35.93182,98102
35.93808,96454
35.94433,96544
35.95058,98151
35.95683,96099
35.96310,96099
35.96935,97301
35.97560,94119
35.98187,95300
35.98812,95317
35.99437,95672
36.00063,93256
36.00688,94357
36.01313,95436
36.01940,96597
36.02565,98684
36.03190,95802
36.03817,95863
36.04442,97334
36.05067,95357
36.05693,96268
36.06318,94499
36.06943,94812
36.07570,97600
36.08195,94977
36.08820,98321
36.09447,97986
36.10072,94725
36.10697,94578
36.11323,95105
36.11948,96108
36.12573,97182
36.13200,95770
36.13825,97249
36.14450,92123
36.15077,98907
36.15702,95148
36.16327,97594
36.16953,95124
36.17578,95936
36.18203,94481
36.18828,98619
36.19455,94409
36.20080,96268
36.20705,95536
36.21332,94256
36.21957,95589
36.22582,95825
36.23208,94745
36.23833,95332
36.24458,92962
36.25085,95024
36.25710,98346
36.26335,94972
36.26962,95461
36.27587,92929
36.28212,95330
36.28838,95514
36.29463,98116
36.30088,96618
36.30715,96312
36.31340,95352
36.31965,94925
36.32592,95024
36.33217,95946
36.33842,95111
36.34468,92535
36.35093,97344
36.35718,97717
36.36345,97555
36.36970,95919
36.37595,95912
36.38222,96227
36.38847,98615
36.39472,97521
36.40097,95295
36.40723,94854
36.41348,97788
36.41973,96814
36.42600,96699
36.43225,97937
36.43850,95652
36.44477,95194
36.45102,97306
36.45727,94474
36.46353,95465
36.46978,95549
36.47603,94732
36.48230,95355
36.48855,94949
36.49480,94088
36.50107,94650
36.50732,95667
36.51357,97950
36.51983,93894
36.52608,97448
36.53233,96296
36.53860,95062
36.54485,99547
36.55110,93764
36.55737,93957
36.56362,96820
36.56987,95537
36.57613,97658
36.58238,97446
36.58863,98500
36.59490,95621
36.60115,96926
36.60740,95612
36.61365,97933
36.61992,96744
36.62617,94401
36.63242,93832
36.63868,93771
36.64493,96077
36.65118,92843
36.65745,94894
36.66370,96542
36.66995,93519
36.67622,95091
36.68247,95366
36.68872,98869
36.69498,93734
36.70123,95841
36.70748,96252
36.71375,95974
36.72000,95978
36.72625,95557
36.73252,94774
36.73877,93306
36.74502,95806
36.75128,96128
36.75753,96725
36.76378,94588
36.77005,98624
36.77630,96880
36.78255,94581
36.78882,97524
36.79507,97015
36.80132,95424
36.80758,96134
36.81383,95939
36.82008,95413
36.82635,94518
36.83260,95884
36.83885,95974
36.84510,95695
36.85137,95113
36.85762,94202
36.86387,96822
36.87013,95888
36.87638,95662
36.88263,95590
36.88890,97675
36.89515,96017
36.90140,95722
36.90767,96089
36.91392,96860
36.92017,98318
36.92643,96538
36.93268,93437
36.93893,96143
36.94520,96065
36.95145,95912
36.95770,93549
36.96397,98508
36.97022,95191
36.97647,94216
36.98273,94400
36.98898,95954
36.99523,95367
37.00150,94931
37.00775,95587
37.01400,98447
37.02027,95677
37.02652,93615
37.03277,96297
37.03903,97225
37.04528,94001
37.05153,91294
37.05778,94766
37.06405,95897
37.07030,97900
37.07655,96207
37.08282,98163
37.08907,94895
37.09532,93702
37.10158,94974
37.10783,96657
37.11408,95032
37.12035,93595
37.12660,96016
37.13285,95605
37.13912,94857
37.14537,93027
37.15162,94402
37.15788,95220
37.16413,96403
37.17038,95438
37.17665,96644
37.18290,97390
37.18915,98253
37.19542,95486
37.20167,95294
37.20792,94062
37.21418,95003
37.22043,96460
37.22668,93068
37.23295,94070
37.23920,96801
37.24545,97345
37.25172,92199
37.25797,95969
37.26422,93589
37.27047,95349
37.27673,96102
37.28298,96284
37.28923,95377
37.29550,94875
37.30175,98868
37.30800,95905
37.31427,95445
37.32052,95765
37.32677,96279
37.33303,92284
37.33928,96070
37.34553,92740
37.35180,95358
37.35805,92382
37.36430,94408
37.37057,95830
37.37682,94710
37.38307,97841
37.38933,93504
37.39558,94812
37.40183,96049
37.40810,95175
37.41435,94815
37.42060,93462
37.42687,96880
37.43312,93877
37.43937,94778
37.44563,96578
37.45188,95047
37.45813,95463
37.46440,94992
37.47065,93450
37.47690,94223
37.48317,93753
37.48942,95273
