D:\MassHunter\GCMS\1\data\metastasis_lineages_3replicates_3runs_10302020\P_plate1_run2_10302020.D Sat Oct 31 00:14:12 2020
Start of data points
5.99345,162910
5.99970,166960
6.00595,183349
6.01222,193140
6.01847,181290
6.02472,179046
6.03098,172380
6.03723,185021
6.04348,190540
6.04975,188494
6.05600,185250
6.06225,194095
6.06852,220582
6.07477,236674
6.08102,209883
6.08728,186117
6.09353,210698
6.09978,407132
6.10605,787230
6.11230,1023825
6.11855,821408
6.12482,495436
6.13107,295220
6.13732,214881
6.14358,202619
6.14983,241297
6.15608,398555
6.16235,671844
6.16860,956439
6.17485,970442
6.18110,660949
6.18737,392859
6.19362,249816
6.19987,196276
6.20613,169813
6.21238,163274
6.21863,159444
6.22490,158014
6.23115,152641
6.23740,151540
6.24367,139319
6.24992,140181
6.25617,136988
6.26243,139157
6.26868,150812
6.27493,161694
6.28120,167517
6.28745,168427
6.29370,173954
6.29997,220291
6.30622,364405
6.31247,644103
6.31873,1148732
6.32498,2369289
6.33123,5473137
6.33750,1.104496E+07
6.34375,1.570176E+07
6.35000,1.494696E+07
6.35627,7584205
6.36252,1923820
6.36877,460381
6.37503,250029
6.38128,216267
6.38753,215252
6.39378,213379
6.40005,246258
6.40630,374776
6.41255,584918
6.41882,721425
6.42507,743740
6.43132,851662
6.43758,932371
6.44383,823381
6.45008,923346
6.45635,2205734
6.46260,5705353
6.46885,1.193291E+07
6.47512,2.005377E+07
6.48137,2.787796E+07
6.48762,3.439296E+07
6.49388,3.903195E+07
6.50013,4.235432E+07
6.50638,4.45633E+07
6.51265,4.50202E+07
6.51890,4.471406E+07
6.52515,4.393835E+07
6.53142,4.258691E+07
6.53767,4.22197E+07
6.54392,3.38339E+07
6.55018,2426228
6.55643,1047585
6.56268,994204
6.56895,1065366
6.57520,1432331
6.58145,1970172
6.58772,2222777
6.59397,1667846
6.60022,846089
6.60647,426988
6.61273,319583
6.61898,301247
6.62523,288930
6.63150,283295
6.63775,298743
6.64400,303182
6.65027,294110
6.65652,281991
6.66277,288603
6.66903,346464
6.67528,445253
6.68153,441366
6.68780,369485
6.69405,301567
6.70030,277455
6.70657,273439
6.71282,285035
6.71907,304229
6.72533,316207
6.73158,319909
6.73783,334023
6.74410,348805
6.75035,357738
6.75660,359942
6.76287,364255
6.76912,354958
6.77537,358711
6.78163,366960
6.78788,365935
6.79413,386155
6.80040,421506
6.80665,465079
6.81290,513399
6.81917,520925
6.82542,474876
6.83167,453057
6.83792,455872
6.84418,490379
6.85043,531490
6.85668,531290
6.86295,495201
6.86920,462159
6.87545,526684
6.88172,694137
6.88797,876873
6.89422,934356
6.90048,738898
6.90673,573856
6.91298,489447
6.91925,446229
6.92550,424839
6.93175,417751
6.93802,409966
6.94427,394152
6.95052,393716
6.95678,394156
6.96303,376180
6.96928,365288
6.97555,363762
6.98180,359108
6.98805,359763
6.99432,334928
7.00057,315579
7.00682,308375
7.01308,313990
7.01933,355580
7.02558,533897
7.03185,1116913
7.03810,2823659
7.04435,6046274
7.05060,9729259
7.05687,9639800
7.06312,6382392
7.06937,2399659
7.07563,679537
7.08188,270175
7.08813,200070
7.09440,183718
7.10065,174390
7.10690,166240
7.11317,167036
7.11942,146941
7.12567,141598
7.13193,152508
7.13818,194945
7.14443,290070
7.15070,433773
7.15695,472101
7.16320,359018
7.16947,220271
7.17572,155003
7.18197,141641
7.18823,140142
7.19448,170492
7.20073,251750
7.20700,340523
7.21325,329918
7.21950,252897
7.22577,170952
7.23202,151953
7.23827,151936
7.24453,189942
7.25078,298268
7.25703,563170
7.26328,960740
7.26955,1108376
7.27580,842059
7.28205,502090
7.28832,263935
7.29457,178466
7.30082,165055
7.30708,150766
7.31333,148353
7.31958,136057
7.32585,120864
7.33210,120525
7.33835,117197
7.34462,115338
7.35087,109106
7.35712,107390
7.36338,108664
7.36963,104840
7.37588,104039
7.38215,111614
7.38840,134647
7.39465,157201
7.40092,154549
7.40717,154739
7.41342,176679
7.41968,251921
7.42593,361418
7.43218,411001
7.43845,375278
7.44470,300690
7.45095,232218
7.45722,186058
7.46347,184662
7.46972,201292
7.47598,208031
7.48223,195882
7.48848,196947
7.49473,222247
7.50100,284421
7.50725,341842
7.51350,329704
7.51977,245951
7.52602,171858
7.53227,133256
7.53853,127801
7.54478,141709
7.55103,309313
7.55730,1240278
7.56355,4447507
7.56980,1.101327E+07
7.57607,1.93371E+07
7.58232,2.530624E+07
7.58857,2.544434E+07
7.59483,1.638656E+07
7.60108,6309637
7.60733,2982634
7.61360,2266919
7.61985,1615010
7.62610,1054230
7.63237,713506
7.63862,486363
7.64487,326211
7.65113,250510
7.65738,217225
7.66363,206827
7.66990,241372
7.67615,344371
7.68240,495192
7.68867,571691
7.69492,485463
7.70117,333530
7.70742,247259
7.71368,270665
7.71993,357648
7.72618,424259
7.73245,400473
7.73870,343789
7.74495,278916
7.75122,232507
7.75747,198875
7.76372,169715
7.76998,162173
7.77623,170562
7.78248,172976
7.78875,181097
7.79500,174203
7.80125,169898
7.80752,160030
7.81377,161565
7.82002,198746
7.82628,287714
7.83253,390662
7.83878,404777
7.84505,331439
7.85130,254461
7.85755,234995
7.86382,281138
7.87007,322821
7.87632,302768
7.88258,255478
7.88883,212537
7.89508,189022
7.90135,183027
7.90760,201084
7.91385,215945
7.92012,218167
7.92637,215861
7.93262,207399
7.93887,207581
7.94513,236304
7.95138,304198
7.95763,402281
7.96390,413611
7.97015,357280
7.97640,317235
7.98267,318227
7.98892,419062
7.99517,637087
8.00143,925524
8.00768,1210710
8.01393,1632492
8.02020,2183451
8.02645,2386174
8.03270,1947933
8.03897,1214716
8.04522,815819
8.05147,850129
8.05773,973843
8.06398,924562
8.07023,644276
8.07650,392099
8.08275,309424
8.08900,398653
8.09527,547752
8.10152,677509
8.10777,776825
8.11403,935113
8.12028,1153290
8.12653,1106618
8.13280,745755
8.13905,401139
8.14530,230268
8.15157,173572
8.15782,157176
8.16407,145049
8.17032,135149
8.17658,131590
8.18283,126221
8.18908,123312
8.19535,127802
8.20160,116928
8.20785,117205
8.21412,121245
8.22037,132910
8.22662,176853
8.23288,277025
8.23913,374735
8.24538,374564
8.25165,304404
8.25790,224357
8.26415,187785
8.27042,177891
8.27667,169817
8.28292,180700
8.28918,202827
8.29543,204336
8.30168,188352
8.30795,149064
8.31420,115753
8.32045,105344
8.32672,98304
8.33297,96910
8.33922,107741
8.34548,113358
8.35173,110401
8.35798,110094
8.36425,115842
8.37050,112984
8.37675,110757
8.38300,109031
8.38927,112798
8.39552,139671
8.40177,236624
8.40803,431976
8.41428,583292
8.42053,542325
8.42680,349234
8.43305,212216
8.43930,198492
8.44557,254779
8.45182,353943
8.45807,412456
8.46433,361898
8.47058,263848
8.47683,176470
8.48310,141945
8.48935,132962
8.49560,127200
8.50187,138292
8.50812,144230
8.51437,145599
8.52063,129664
8.52688,116092
8.53313,99207
8.53940,96214
8.54565,93781
8.55190,103150
8.55817,127377
8.56442,203902
8.57067,353283
8.57693,580144
8.58318,920674
8.58943,1377023
8.59568,1675172
8.60195,1562026
8.60820,1537840
8.61445,2837996
8.62072,6825481
8.62697,1.251036E+07
8.63322,1.559344E+07
8.63948,1.327305E+07
8.64573,6764156
8.65198,1942346
8.65825,486002
8.66450,226672
8.67075,194340
8.67702,182655
8.68327,172061
8.68952,178563
8.69578,192685
8.70203,202908
8.70828,205888
8.71455,203614
8.72080,201022
8.72705,178927
8.73332,166015
8.73957,157920
8.74582,177314
8.75208,183924
8.75833,164774
8.76458,130489
8.77085,107001
8.77710,106749
8.78335,103385
8.78962,104618
8.79587,100797
8.80212,95633
8.80838,98247
8.81463,106803
8.82088,108903
8.82713,117769
8.83340,231416
8.83965,665153
8.84590,1801118
8.85217,3922503
8.85842,6242756
8.86467,7455682
8.87093,6273072
8.87718,4559084
8.88343,3708219
8.88970,4131501
8.89595,4875391
8.90220,5543200
8.90847,5234312
8.91472,2998477
8.92097,1185298
8.92723,538143
8.93348,298809
8.93973,197353
8.94600,166219
8.95225,160855
8.95850,184150
8.96477,223819
8.97102,276173
8.97727,312726
8.98353,343378
8.98978,362393
8.99603,421859
9.00230,547350
9.00855,747225
9.01480,807633
9.02107,666089
9.02732,493858
9.03357,558059
9.03982,1101402
9.04608,1936726
9.05233,2341981
9.05858,1819809
9.06485,918847
9.07110,419289
9.07735,230885
9.08362,176634
9.08987,174467
9.09612,178802
9.10238,184595
9.10863,170180
9.11488,152207
9.12115,133664
9.12740,122102
9.13365,133823
9.13992,151447
9.14617,174178
9.15242,184444
9.15868,219919
9.16493,272238
9.17118,297692
9.17745,304551
9.18370,310653
9.18995,381641
9.19622,439415
9.20247,412061
9.20872,301757
9.21498,218608
9.22123,169970
9.22748,148021
9.23375,145468
9.24000,176072
9.24625,219585
9.25250,254396
9.25877,229868
9.26502,172036
9.27127,130406
9.27753,105347
9.28378,109786
9.29003,122524
9.29630,155829
9.30255,216965
9.30880,296893
9.31507,365879
9.32132,431334
9.32757,448438
9.33383,428599
9.34008,525244
9.34633,773084
9.35260,1120071
9.35885,1155351
9.36510,898001
9.37137,548222
9.37762,650048
9.38387,2025663
9.39013,5691691
9.39638,1.114326E+07
9.40263,1.527216E+07
9.40890,1.464607E+07
9.41515,8753186
9.42140,3096543
9.42767,995069
9.43392,1198813
9.44017,3797918
9.44643,1.05337E+07
9.45268,2.10987E+07
9.45893,3.072023E+07
9.46520,3.353813E+07
9.47145,2.860708E+07
9.47770,1.679459E+07
9.48395,5318425
9.49022,1269336
9.49647,451289
9.50272,274763
9.50898,220753
9.51523,210979
9.52148,204793
9.52775,197275
9.53400,191928
9.54025,185999
9.54652,189041
9.55277,179348
9.55902,176884
9.56528,197480
9.57153,200964
9.57778,219146
9.58405,213579
9.59030,203140
9.59655,188055
9.60282,184936
9.60907,201410
9.61532,246912
9.62158,268697
9.62783,241782
9.63408,187496
9.64035,157146
9.64660,141608
9.65285,144044
9.65912,148198
9.66537,144182
9.67162,145901
9.67788,272720
9.68413,974600
9.69038,3351032
9.69663,8180671
9.70290,1.339085E+07
9.70915,1.526832E+07
9.71540,1.125533E+07
9.72167,5247590
9.72792,2877712
9.73417,3872283
9.74043,5910599
9.74668,6463226
9.75293,4590888
9.75920,2219741
9.76545,784932
9.77170,311347
9.77797,212809
9.78422,176349
9.79047,157801
9.79673,142503
9.80298,130047
9.80923,125599
9.81550,127347
9.82175,127394
9.82800,124251
9.83427,136862
9.84052,166483
9.84677,220363
9.85303,431246
9.85928,1244280
9.86553,3812562
9.87180,9107226
9.87805,1.534077E+07
9.88430,1.834642E+07
9.89057,1.512666E+07
9.89682,7492360
9.90307,2712003
9.90932,1747656
9.91558,1933289
9.92183,1602737
9.92808,915671
9.93435,406570
9.94060,219802
9.94685,177129
9.95312,190331
9.95937,260112
9.96562,425567
9.97188,719310
9.97813,983792
9.98438,1196287
9.99065,1256573
9.99690,1226475
10.00315,1012421
10.00942,716974
10.01567,431319
10.02192,292712
10.02818,231422
10.03443,198408
10.04068,177758
10.04695,173579
10.05320,183822
10.05945,163919
10.06572,149033
10.07197,134528
10.07822,126001
10.08448,133418
10.09073,148154
10.09698,166181
10.10325,193388
10.10950,216648
10.11575,244918
10.12202,270945
10.12827,244490
10.13452,201238
10.14077,152004
10.14703,134824
10.15328,126917
10.15953,129211
10.16580,125820
10.17205,122594
10.17830,143421
10.18457,167540
10.19082,179487
10.19707,174894
10.20333,151548
10.20958,142050
10.21583,176964
10.22210,310754
10.22835,545477
10.23460,763947
10.24087,809852
10.24712,705461
10.25337,528838
10.25963,378862
10.26588,282594
10.27213,236685
10.27840,209258
10.28465,212917
10.29090,281846
10.29717,370067
10.30342,382560
10.30967,298901
10.31593,213761
10.32218,191010
10.32843,239784
10.33470,389567
10.34095,536494
10.34720,552685
10.35347,410886
10.35972,248213
10.36597,183503
10.37222,167462
10.37848,151289
10.38473,135911
10.39098,129953
10.39725,119081
10.40350,104685
10.40975,101846
10.41602,110275
10.42227,124763
10.42852,137778
10.43478,151685
10.44103,151043
10.44728,147325
10.45355,149165
10.45980,150443
10.46605,144253
10.47232,145913
10.47857,185468
10.48482,270656
10.49108,342874
10.49733,356539
10.50358,284256
10.50985,197071
10.51610,145321
10.52235,127582
10.52862,149581
10.53487,207562
10.54112,282146
10.54738,316956
10.55363,277377
10.55988,225454
10.56615,183110
10.57240,186820
10.57865,203425
10.58490,219634
10.59117,237093
10.59742,237039
10.60367,398334
10.60993,1250859
10.61618,3866875
10.62243,8407950
10.62870,1.333007E+07
10.63495,1.397079E+07
10.64120,9466160
10.64747,3916632
10.65372,1249241
10.65997,365569
10.66623,197484
10.67248,182285
10.67873,200031
10.68500,199617
10.69125,182697
10.69750,160940
10.70377,133195
10.71002,127256
10.71627,131057
10.72253,144670
10.72878,157661
10.73503,163868
10.74130,174272
10.74755,173556
10.75380,169570
10.76007,166043
10.76632,165846
10.77257,162694
10.77883,167987
10.78508,165841
10.79133,162887
10.79760,160485
10.80385,168083
10.81010,231662
10.81635,364097
10.82262,505706
10.82887,512556
10.83512,394208
10.84138,246552
10.84763,166830
10.85388,153235
10.86015,157851
10.86640,166976
10.87265,170915
10.87892,165559
10.88517,162292
10.89142,159894
10.89768,167396
10.90393,175135
10.91018,185391
10.91645,188728
10.92270,170315
10.92895,160383
10.93522,160992
10.94147,147717
10.94772,137108
10.95398,132269
10.96023,168079
10.96648,418607
10.97275,1302841
10.97900,3955667
10.98525,9071982
10.99152,1.632587E+07
10.99777,2.178661E+07
11.00402,2.047268E+07
11.01028,1.248209E+07
11.01653,4447891
11.02278,1060487
11.02903,318055
11.03530,228633
11.04155,239124
11.04780,259687
11.05407,272351
11.06032,318146
11.06657,328114
11.07283,285675
11.07908,217474
11.08533,159394
11.09160,138984
11.09785,153466
11.10410,174640
11.11037,185547
11.11662,179210
11.12287,181621
11.12913,179384
11.13538,192260
11.14163,206027
11.14790,207231
11.15415,239217
11.16040,335314
11.16667,483933
11.17292,600735
11.17917,582842
11.18543,423313
11.19168,258865
11.19793,169059
11.20420,155799
11.21045,169764
11.21670,192663
11.22297,207260
11.22922,221271
11.23547,193682
11.24172,174900
11.24798,180167
11.25423,212523
11.26048,230890
11.26675,261101
11.27300,294426
11.27925,361535
11.28552,403397
11.29177,377351
11.29802,295362
11.30428,214206
11.31053,175484
11.31678,190640
11.32305,288418
11.32930,466436
11.33555,606785
11.34182,565071
11.34807,368881
11.35432,216487
11.36058,134286
11.36683,128529
11.37308,130028
11.37935,127188
11.38560,123827
11.39185,114790
11.39812,119005
11.40437,125053
11.41062,131028
11.41688,132802
11.42313,138136
11.42938,134955
11.43565,171737
11.44190,277788
11.44815,489196
11.45442,666631
11.46067,716841
11.46692,569355
11.47317,358803
11.47943,253362
11.48568,229069
11.49193,220790
11.49820,192917
11.50445,164056
11.51070,146353
11.51697,134734
11.52322,131490
11.52947,130072
11.53573,121420
11.54198,124811
11.54823,122205
11.55450,121702
11.56075,115569
11.56700,110859
11.57327,106164
11.57952,106011
11.58577,107524
11.59203,115668
11.59828,123388
11.60453,126158
11.61080,124569
11.61705,123259
11.62330,119317
11.62957,124418
11.63582,125705
11.64207,125703
11.64833,136420
11.65458,151728
11.66083,166480
11.66710,163103
11.67335,154875
11.67960,135102
11.68585,128668
11.69212,129137
11.69837,147027
11.70462,191770
11.71088,282394
11.71713,424281
11.72338,534494
11.72965,509986
11.73590,384242
11.74215,259660
11.74842,193605
11.75467,153617
11.76092,137114
11.76718,146618
11.77343,181128
11.77968,193639
11.78595,198156
11.79220,198855
11.79845,204780
11.80472,205204
11.81097,198179
11.81722,192317
11.82348,190199
11.82973,255639
11.83598,438139
11.84225,687384
11.84850,810059
11.85475,689356
11.86102,456212
11.86727,283328
11.87352,199732
11.87978,184592
11.88603,232166
11.89228,317647
11.89853,393478
11.90480,415926
11.91105,354379
11.91730,284392
11.92357,219285
11.92982,193705
11.93607,204039
11.94233,305689
11.94858,613467
11.95483,1405489
11.96110,2955165
11.96735,4929032
11.97360,5706702
11.97987,4456874
11.98612,2337897
11.99237,940324
11.99863,485290
12.00488,469843
12.01113,489258
12.01740,449161
12.02365,377996
12.02990,343326
12.03617,377393
12.04242,504278
12.04867,746878
12.05493,1038993
12.06118,1236412
12.06743,1129680
12.07370,835788
12.07995,557030
12.08620,414262
12.09247,382337
12.09872,387187
12.10497,379367
12.11123,326940
12.11748,268874
12.12373,221616
12.12998,189312
12.13625,185065
12.14250,184141
12.14875,182176
12.15502,174717
12.16127,167055
12.16752,163808
12.17378,167748
12.18003,171407
12.18628,188626
12.19255,215669
12.19880,277177
12.20505,359550
12.21132,462940
12.21757,583177
12.22382,629854
12.23008,586502
12.23633,485440
12.24258,430501
12.24885,466821
12.25510,695581
12.26135,1188500
12.26762,1931327
12.27387,2639891
12.28012,3111944
12.28638,2806418
12.29263,1825710
12.29888,878525
12.30515,383339
12.31140,211596
12.31765,157988
12.32392,145975
12.33017,147419
12.33642,157938
12.34267,181995
12.34893,211030
12.35518,244755
12.36143,260983
12.36770,261638
12.37395,246246
12.38020,253755
12.38647,295009
12.39272,348177
12.39897,367342
12.40523,317828
12.41148,242153
12.41773,206694
12.42400,193676
12.43025,210509
12.43650,253018
12.44277,285560
12.44902,289528
12.45527,257091
12.46153,235446
12.46778,233761
12.47403,289463
12.48030,451930
12.48655,810485
12.49280,1352177
12.49907,1810055
12.50532,1818578
12.51157,1255591
12.51783,689918
12.52408,343609
12.53033,228988
12.53660,223833
12.54285,275069
12.54910,336127
12.55535,355025
12.56162,317067
12.56787,279307
12.57412,362465
12.58038,652563
12.58663,1198026
12.59288,2018943
12.59915,2574540
12.60540,2633337
12.61165,2814881
12.61792,3780896
12.62417,5473619
12.63042,6776207
12.63668,7323718
12.64293,7871695
12.64918,9959803
12.65545,1.316363E+07
12.66170,1.806079E+07
12.66795,2.394678E+07
12.67422,2.851753E+07
12.68047,2.970119E+07
12.68672,2.751449E+07
12.69298,1.890739E+07
12.69923,6531155
12.70548,1409813
12.71175,581742
12.71800,649745
12.72425,826808
12.73052,962627
12.73677,1001515
12.74302,1018533
12.74928,988774
12.75553,862438
12.76178,698715
12.76805,544352
12.77430,455448
12.78055,455069
12.78680,561547
12.79307,712528
12.79932,751773
12.80557,626549
12.81183,439758
12.81808,333272
12.82433,309626
12.83060,346203
12.83685,363987
12.84310,349692
12.84937,310106
12.85562,285130
12.86187,270737
12.86813,268464
12.87438,266566
12.88063,284896
12.88690,390106
12.89315,617421
12.89940,922355
12.90567,1079008
12.91192,962271
12.91817,773617
12.92443,570000
12.93068,412076
12.93693,308149
12.94320,245924
12.94945,217812
12.95570,213852
12.96197,209863
12.96822,200345
12.97447,193636
12.98073,193265
12.98698,199474
12.99323,213041
12.99948,230305
13.00575,254382
13.01200,266983
13.01825,299476
13.02452,365378
13.03077,519368
13.03702,708718
13.04328,850066
13.04953,750048
13.05578,524015
13.06205,377506
13.06830,439158
13.07455,810033
13.08082,1605164
13.08707,2766170
13.09332,3548052
13.09958,3217913
13.10583,2024275
13.11208,1052787
13.11835,590722
13.12460,415843
13.13085,332528
13.13712,303058
13.14337,299372
13.14962,300932
13.15588,282361
13.16213,257953
13.16838,241266
13.17465,226080
13.18090,206010
13.18715,190868
13.19342,185457
13.19967,200917
13.20592,188453
13.21218,179347
13.21843,182808
13.22468,196592
13.23093,218588
13.23720,248925
13.24345,266537
13.24970,278745
13.25597,278122
13.26222,288739
13.26847,323194
13.27473,328164
13.28098,316397
13.28723,320457
13.29350,396597
13.29975,592474
13.30600,947404
13.31227,1388189
13.31852,1596398
13.32477,1273032
13.33103,779516
13.33728,407545
13.34353,273775
13.34980,262466
13.35605,273171
13.36230,269895
13.36857,257687
13.37482,238130
13.38107,222713
13.38733,198967
13.39358,193890
13.39983,183579
13.40610,186048
13.41235,190398
13.41860,203535
13.42487,226356
13.43112,265113
13.43737,302072
13.44362,351904
13.44988,345649
13.45613,311491
13.46238,266073
13.46865,232731
13.47490,219785
13.48115,219610
13.48742,221679
13.49367,225561
13.49992,225113
13.50618,224578
13.51243,230091
13.51868,239904
13.52495,263711
13.53120,275974
13.53745,301944
13.54372,360977
13.54997,522549
13.55622,801421
13.56248,1007019
13.56873,982319
13.57498,733713
13.58125,529620
13.58750,483898
13.59375,642082
13.60002,985955
13.60627,1433428
13.61252,1655219
13.61878,1438625
13.62503,978434
13.63128,641509
13.63755,459317
13.64380,376253
13.65005,349152
13.65632,352869
13.66257,355749
13.66882,344530
13.67507,326982
13.68133,332539
13.68758,373003
13.69383,449916
13.70010,502733
13.70635,492480
13.71260,418617
13.71887,334169
13.72512,288588
13.73137,276750
13.73763,276543
13.74388,293573
13.75013,336721
13.75640,509832
13.76265,876564
13.76890,1433411
13.77517,1700324
13.78142,1435214
13.78767,896833
13.79393,558436
13.80018,554667
13.80643,996220
13.81270,2013588
13.81895,3816701
13.82520,6840851
13.83147,1.125569E+07
13.83772,1.718263E+07
13.84397,2.163512E+07
13.85023,2.243965E+07
13.85648,1.550483E+07
13.86273,5598125
13.86900,1101309
13.87525,356511
13.88150,286634
13.88775,426189
13.89402,848517
13.90027,1799043
13.90652,3488710
13.91278,6032641
13.91903,8660406
13.92528,9233312
13.93155,6698894
13.93780,3190331
13.94405,1096457
13.95032,352909
13.95657,197915
13.96282,211088
13.96908,188631
13.97533,184628
13.98158,184277
13.98785,187180
13.99410,191452
14.00035,203351
14.00662,235710
14.01287,284298
14.01912,303093
14.02538,288824
14.03163,228557
14.03788,173885
14.04415,152727
14.05040,141455
14.05665,152358
14.06292,168083
14.06917,200766
14.07542,246678
14.08168,249518
14.08793,225331
14.09418,209061
14.10045,181896
14.10670,167103
14.11295,157750
14.11920,159791
14.12547,169905
14.13172,179807
14.13797,185851
14.14423,187119
14.15048,178517
14.15673,175331
14.16300,177761
14.16925,178196
14.17550,180324
14.18177,167520
14.18802,166954
14.19427,163500
14.20053,174412
14.20678,192823
14.21303,225605
14.21930,310728
14.22555,432042
14.23180,542118
14.23807,591720
14.24432,553650
14.25057,464542
14.25683,372580
14.26308,423654
14.26933,712063
14.27560,1275905
14.28185,1896636
14.28810,2023958
14.29437,1381916
14.30062,724962
14.30687,386902
14.31313,300355
14.31938,347860
14.32563,455774
14.33188,583569
14.33815,613130
14.34440,529465
14.35065,384751
14.35692,283455
14.36317,243974
14.36942,234094
14.37568,247098
14.38193,270780
14.38818,300479
14.39445,354561
14.40070,478172
14.40695,820367
14.41322,1726285
14.41947,3639141
14.42572,6227001
14.43198,8213004
14.43823,7494832
14.44448,5166191
14.45075,3417083
14.45700,2564961
14.46325,2135457
14.46952,1884302
14.47577,1687955
14.48202,1578037
14.48828,1437331
14.49453,1183399
14.50078,793068
14.50705,526578
14.51330,393440
14.51955,330755
14.52582,325362
14.53207,323245
14.53832,315128
14.54457,282368
14.55083,258520
14.55708,259689
14.56333,264796
14.56960,257928
14.57585,261831
14.58210,247609
14.58837,224715
14.59462,208611
14.60087,205654
14.60713,213667
14.61338,221496
14.61963,227754
14.62590,234994
14.63215,244110
14.63840,284303
14.64467,382027
14.65092,509466
14.65717,597305
14.66343,548989
14.66968,447764
14.67593,346021
14.68220,315993
14.68845,334377
14.69470,405500
14.70097,519887
14.70722,619412
14.71347,631508
14.71973,613150
14.72598,691018
14.73223,982195
14.73850,1633122
14.74475,2210936
14.75100,2491705
14.75727,2703049
14.76352,3039298
14.76977,3232800
14.77602,2515334
14.78228,1454669
14.78853,681401
14.79478,469253
14.80105,690614
14.80730,1329490
14.81355,2247356
14.81982,2832411
14.82607,2241405
14.83232,1327188
14.83858,578665
14.84483,299877
14.85108,235750
14.85735,283110
14.86360,366632
14.86985,499933
14.87612,560562
14.88237,512067
14.88862,405670
14.89488,308994
14.90113,269028
14.90738,309788
14.91365,460597
14.91990,720589
14.92615,938146
14.93242,1009898
14.93867,916805
14.94492,731758
14.95118,619855
14.95743,563635
14.96368,839280
14.96995,1592330
14.97620,3363943
14.98245,5473702
14.98870,6738281
14.99497,5686441
15.00122,3189445
15.00747,1350735
15.01373,567082
15.01998,333445
15.02623,273750
15.03250,259132
15.03875,276051
15.04500,308255
15.05127,346168
15.05752,400141
15.06377,364626
15.07003,344531
15.07628,311561
15.08253,298565
15.08880,299261
15.09505,327990
15.10130,390784
15.10757,426090
15.11382,452347
15.12007,503506
15.12633,592014
15.13258,731944
15.13883,884429
15.14510,1012433
15.15135,1109253
15.15760,1282037
15.16387,1799868
15.17012,2984466
15.17637,4712955
15.18263,5649811
15.18888,4860453
15.19513,2767840
15.20138,1275844
15.20765,629497
15.21390,393248
15.22015,293758
15.22642,241055
15.23267,222932
15.23892,221457
15.24518,223429
15.25143,233538
15.25768,249779
15.26395,262233
15.27020,254521
15.27645,232253
15.28272,214378
15.28897,191022
15.29522,194124
15.30148,206565
15.30773,215858
15.31398,234986
15.32025,286357
15.32650,351928
15.33275,398062
15.33902,364050
15.34527,300947
15.35152,251018
15.35778,252031
15.36403,298106
15.37028,340818
15.37655,325573
15.38280,281144
15.38905,219333
15.39532,195385
15.40157,177981
15.40782,169481
15.41408,171747
15.42033,184813
15.42658,235824
15.43283,339147
15.43910,478154
15.44535,640980
15.45160,853820
15.45787,1076537
15.46412,1132084
15.47037,875099
15.47663,577379
15.48288,355533
15.48913,246148
15.49540,209464
15.50165,215907
15.50790,262166
15.51417,369632
15.52042,689986
15.52667,1606886
15.53293,3540456
15.53918,6263073
15.54543,8587327
15.55170,1.073815E+07
15.55795,1.431207E+07
15.56420,1.85899E+07
15.57047,2.194666E+07
15.57672,1.869298E+07
15.58297,8721765
15.58923,2367399
15.59548,782139
15.60173,483311
15.60800,436268
15.61425,422667
15.62050,456911
15.62677,468919
15.63302,429566
15.63927,377784
15.64552,352251
15.65178,309306
15.65803,268578
15.66428,252854
15.67055,249998
15.67680,256838
15.68305,302675
15.68932,308964
15.69557,311552
15.70182,300931
15.70808,291813
15.71433,276185
15.72058,246607
15.72685,214961
15.73310,207167
15.73935,211293
15.74562,229604
15.75187,251405
15.75812,259415
15.76438,250831
15.77063,228366
15.77688,196389
15.78315,178075
15.78940,161754
15.79565,161944
15.80192,170826
15.80817,178175
15.81442,190470
15.82068,192451
15.82693,209591
15.83318,256566
15.83945,369227
15.84570,596097
15.85195,845142
15.85822,916148
15.86447,715695
15.87072,440039
15.87697,273518
15.88323,224691
15.88948,219291
15.89573,213473
15.90200,213666
15.90825,203849
15.91450,185965
15.92077,182417
15.92702,180936
15.93327,191106
15.93953,195776
15.94578,189174
15.95203,185242
15.95830,198132
15.96455,219976
15.97080,254483
15.97707,271500
15.98332,246957
15.98957,196127
15.99583,167416
16.00208,161151
16.00833,201728
16.01460,296969
16.02085,480312
16.02710,701131
16.03337,877692
16.03962,972674
16.04587,1154097
16.05213,1483780
16.05838,1798452
16.06463,1675746
16.07090,1192509
16.07715,786304
16.08340,724580
16.08965,947513
16.09592,1275758
16.10217,1391762
16.10842,1286693
16.11468,1426996
16.12093,2246432
16.12718,3402661
16.13345,4220423
16.13970,3788299
16.14595,2497529
16.15222,1331306
16.15847,615851
16.16472,388703
16.17098,341367
16.17723,314891
16.18348,309416
16.18975,309477
16.19600,335301
16.20225,373290
16.20852,381182
16.21477,336181
16.22102,313101
16.22728,455541
16.23353,852643
16.23978,1397221
16.24605,1798467
16.25230,1534034
16.25855,977573
16.26482,512994
16.27107,342023
16.27732,268239
16.28358,251242
16.28983,249841
16.29608,294148
16.30235,424380
16.30860,665992
16.31485,865413
16.32110,865992
16.32737,682814
16.33362,450776
16.33987,300607
16.34613,248175
16.35238,233992
16.35863,239974
16.36490,242133
16.37115,240218
16.37740,217749
16.38367,207790
16.38992,196009
16.39617,195331
16.40243,196683
16.40868,199083
16.41493,200680
16.42120,205296
16.42745,208093
16.43370,260295
16.43997,400724
16.44622,682148
16.45247,1003631
16.45873,1030578
16.46498,877866
16.47123,702560
16.47750,587162
16.48375,481991
16.49000,376807
16.49627,302958
16.50252,268595
16.50877,269935
16.51503,320482
16.52128,390409
16.52753,469651
16.53378,479941
16.54005,474433
16.54630,446493
16.55255,398768
16.55882,355267
16.56507,326624
16.57132,298984
16.57758,271620
16.58383,272294
16.59008,274014
16.59635,286669
16.60260,281717
16.60885,279470
16.61512,282620
16.62137,289630
16.62762,297952
16.63388,334585
16.64013,349864
16.64638,403219
16.65265,452882
16.65890,470820
16.66515,423671
16.67142,361034
16.67767,344750
16.68392,353785
16.69018,339117
16.69643,362790
16.70268,329410
16.70895,285298
16.71520,246951
16.72145,233100
16.72772,227721
16.73397,230223
16.74022,237449
16.74648,248986
16.75273,267214
16.75898,324638
16.76523,448564
16.77150,811463
16.77775,1549012
16.78400,2455846
16.79027,2901657
16.79652,2461600
16.80277,2140696
16.80903,2103145
16.81528,2443699
16.82153,3177034
16.82780,4382831
16.83405,6880908
16.84030,1.03148E+07
16.84657,1.258625E+07
16.85282,1.21591E+07
16.85907,8538327
16.86533,5383188
16.87158,2993433
16.87783,2240490
16.88410,2386536
16.89035,2690819
16.89660,3015043
16.90287,2876105
16.90912,2408586
16.91537,2008385
16.92163,1884294
16.92788,2279980
16.93413,2968598
16.94040,3626585
16.94665,3752510
16.95290,3797469
16.95917,3878234
16.96542,4139938
16.97167,3747135
16.97792,2719285
16.98418,1597277
16.99043,964430
16.99668,649855
17.00295,616480
17.00920,911456
17.01545,1812941
17.02172,3635604
17.02797,6972314
17.03422,1.131619E+07
17.04048,1.622417E+07
17.04673,2.330457E+07
17.05298,3.084304E+07
17.05925,3.965188E+07
17.06550,4.644055E+07
17.07175,4.92625E+07
17.07802,4.880572E+07
17.08427,4.614938E+07
17.09052,4.297105E+07
17.09678,4.055555E+07
17.10303,4.10274E+07
17.10928,4.599601E+07
17.11555,2.153782E+07
17.12180,1.125693E+07
17.12805,1.22649E+07
17.13432,1.218178E+07
17.14057,9844446
17.14682,6818490
17.15308,6912140
17.15933,1.098984E+07
17.16558,1.970668E+07
17.17185,2.966117E+07
17.17810,3.812819E+07
17.18435,4.107127E+07
17.19060,3.404371E+07
17.19687,1.551658E+07
17.20312,3971667
17.20937,1897992
17.21563,2077656
17.22188,2607367
17.22813,3543761
17.23440,5595426
17.24065,1.006604E+07
17.24690,1.838562E+07
17.25317,2.799715E+07
17.25942,3.70827E+07
17.26567,4.06636E+07
17.27193,3.388497E+07
17.27818,1.698929E+07
17.28443,6734236
17.29070,6233988
17.29695,1.006384E+07
17.30320,1.386819E+07
17.30947,1.482278E+07
17.31572,1.11339E+07
17.32197,5839192
17.32823,2521938
17.33448,1352058
17.34073,940556
17.34700,772137
17.35325,675758
17.35950,617773
17.36577,564912
17.37202,532812
17.37827,531559
17.38453,541341
17.39078,564207
17.39703,585844
17.40330,672512
17.40955,789632
17.41580,906915
17.42205,926168
17.42832,902096
17.43457,874415
17.44082,1023995
17.44708,1572285
17.45333,2588173
17.45958,3657423
17.46585,4127038
17.47210,3226569
17.47835,1952356
17.48462,1037573
17.49087,669506
17.49712,554906
17.50338,566266
17.50963,648683
17.51588,788394
17.52215,944064
17.52840,991280
17.53465,858491
17.54092,641745
17.54717,521550
17.55342,512237
17.55968,671655
17.56593,1172349
17.57218,2443344
17.57845,5110734
17.58470,8559814
17.59095,1.014206E+07
17.59722,8040058
17.60347,4277876
17.60972,1821361
17.61598,867457
17.62223,763413
17.62848,848796
17.63473,862185
17.64100,737972
17.64725,588795
17.65350,493471
17.65977,447633
17.66602,414288
17.67227,382695
17.67853,367967
17.68478,371851
17.69103,388284
17.69730,420513
17.70355,465722
17.70980,492879
17.71607,486814
17.72232,466787
17.72857,390620
17.73483,359328
17.74108,356532
17.74733,385500
17.75360,417864
17.75985,447520
17.76610,483110
17.77237,558646
17.77862,718020
17.78487,946822
17.79113,1274022
17.79738,1929862
17.80363,3428788
17.80990,6050887
17.81615,7951093
17.82240,8917541
17.82867,7934212
17.83492,5009282
17.84117,2528743
17.84742,1402652
17.85368,1027336
17.85993,1052930
17.86618,1925273
17.87245,4471718
17.87870,8262380
17.88495,1.155276E+07
17.89122,1.167788E+07
17.89747,7671472
17.90372,3501309
17.90998,1342245
17.91623,648703
17.92248,491803
17.92875,455481
17.93500,437036
17.94125,410966
17.94752,396349
17.95377,384151
17.96002,384741
17.96628,398349
17.97253,418731
17.97878,421522
17.98505,459667
17.99130,484134
17.99755,556713
18.00382,694895
18.01007,913492
18.01632,1080888
18.02258,1038069
18.02883,891686
18.03508,667651
18.04135,517643
18.04760,456172
18.05385,405926
18.06012,374239
18.06637,337863
18.07262,317991
18.07887,306220
18.08513,321560
18.09138,356024
18.09763,417525
18.10390,465127
18.11015,485429
18.11640,484077
18.12267,536952
18.12892,732094
18.13517,1328453
18.14143,2448391
18.14768,3755104
18.15393,4159818
18.16020,3212318
18.16645,1656572
18.17270,856889
18.17897,503138
18.18522,382964
18.19147,342468
18.19773,311585
18.20398,302420
18.21023,313938
18.21650,368632
18.22275,432867
18.22900,459097
18.23527,417664
18.24152,371286
18.24777,336996
18.25403,309239
18.26028,307277
18.26653,323383
18.27280,348355
18.27905,381733
18.28530,446632
18.29155,534177
18.29782,737694
18.30407,1116931
18.31032,1563278
18.31658,1772838
18.32283,1648484
18.32908,1365986
18.33535,946005
18.34160,565764
18.34785,362479
18.35412,299287
18.36037,303076
18.36662,321910
18.37288,318011
18.37913,319306
18.38538,359313
18.39165,419855
18.39790,469778
18.40415,465133
18.41042,413298
18.41667,407888
18.42292,403424
18.42918,400631
18.43543,356437
18.44168,330496
18.44795,322194
18.45420,299881
18.46045,272304
18.46672,251099
18.47297,237890
18.47922,235015
18.48548,232033
18.49173,217695
18.49798,208411
18.50423,204074
18.51050,209915
18.51675,210504
18.52300,211559
18.52927,210366
18.53552,209236
18.54177,220451
18.54803,235950
18.55428,246602
18.56053,260560
18.56680,274072
18.57305,263187
18.57930,249197
18.58557,233656
18.59182,247528
18.59807,294948
18.60433,389764
18.61058,505689
18.61683,643010
18.62310,716608
18.62935,631718
18.63560,481497
18.64187,393348
18.64812,387365
18.65437,396993
18.66063,384149
18.66688,338848
18.67313,298438
18.67940,283776
18.68565,266578
18.69190,247235
18.69817,230924
18.70442,239109
18.71067,266415
18.71693,316032
18.72318,346587
18.72943,331425
18.73568,293926
18.74195,247785
18.74820,222304
18.75445,220818
18.76072,220492
18.76697,222277
18.77322,223478
18.77948,210874
18.78573,194496
18.79198,187093
18.79825,177465
18.80450,184182
18.81075,187538
18.81702,198384
18.82327,206282
18.82952,206951
18.83578,211194
18.84203,206322
18.84828,205869
18.85455,212619
18.86080,274889
18.86705,498656
18.87332,1009065
18.87957,2527892
18.88582,5706794
18.89208,1.211387E+07
18.89833,2.273379E+07
18.90458,3.538179E+07
18.91085,4.574943E+07
18.91710,4.960355E+07
18.92335,4.843718E+07
18.92962,3.467709E+07
18.93587,1.089498E+07
18.94212,2267929
18.94837,713764
18.95463,460737
18.96088,374785
18.96713,300700
18.97340,264846
18.97965,229171
18.98590,215715
18.99217,211409
18.99842,210135
19.00467,222838
19.01093,238927
19.01718,247142
19.02343,247930
19.02970,239565
19.03595,227156
19.04220,222054
19.04847,237888
19.05472,254801
19.06097,264385
19.06723,252500
19.07348,246226
19.07973,257414
19.08600,314129
19.09225,329246
19.09850,350313
19.10477,364382
19.11102,344404
19.11727,312251
19.12353,289474
19.12978,277254
19.13603,277023
19.14230,282231
19.14855,273472
19.15480,256328
19.16107,236465
19.16732,214660
19.17357,205227
19.17982,186493
19.18608,187183
19.19233,197676
19.19858,205006
19.20485,212580
19.21110,209262
19.21735,205887
19.22362,202862
19.22987,189848
19.23612,182030
19.24238,169567
19.24863,171727
19.25488,169390
19.26115,160189
19.26740,157027
19.27365,159015
19.27992,158432
19.28617,168063
19.29242,176604
19.29868,178862
19.30493,183208
19.31118,178127
19.31745,164525
19.32370,158614
19.32995,154754
19.33622,159246
19.34247,184167
19.34872,208173
19.35498,241430
19.36123,250245
19.36748,239321
19.37375,223814
19.38000,207272
19.38625,201363
19.39250,211101
19.39877,219677
19.40502,238037
19.41127,250147
19.41753,257459
19.42378,234056
19.43003,224196
19.43630,210652
19.44255,215274
19.44880,226102
19.45507,240001
19.46132,249060
19.46757,222921
19.47383,201356
19.48008,192667
19.48633,193433
19.49260,197370
19.49885,212480
19.50510,230595
19.51137,227971
19.51762,233027
19.52387,237894
19.53013,244871
19.53638,235665
19.54263,267327
19.54890,299650
19.55515,354449
19.56140,395825
19.56767,370790
19.57392,314090
19.58017,249947
19.58643,205196
19.59268,187722
19.59893,182379
19.60520,187082
19.61145,184718
19.61770,180049
19.62395,181719
19.63022,202121
19.63647,246745
19.64272,292890
19.64898,311311
19.65523,289638
19.66148,249110
19.66775,245914
19.67400,289157
19.68025,349420
19.68652,416881
19.69277,395116
19.69902,339674
19.70528,291267
19.71153,268383
19.71778,272366
19.72405,266240
19.73030,266447
19.73655,273605
19.74282,279389
19.74907,277681
19.75532,278542
19.76158,301641
19.76783,299036
19.77408,332639
19.78035,334962
19.78660,332585
19.79285,314552
19.79912,323842
19.80537,368534
19.81162,381913
19.81788,341979
19.82413,276890
19.83038,224472
19.83663,193625
19.84290,181885
19.84915,182163
19.85540,211098
19.86167,250832
19.86792,299802
19.87417,343203
19.88043,337747
19.88668,301068
19.89293,243163
19.89920,235529
19.90545,324813
19.91170,663805
19.91797,1684025
19.92422,3427565
19.93047,5242865
19.93673,5336712
19.94298,3746014
19.94923,1858493
19.95550,772951
19.96175,422542
19.96800,419922
19.97427,580918
19.98052,787329
19.98677,976472
19.99303,953976
19.99928,816760
20.00553,590805
20.01180,406972
20.01805,318888
20.02430,279823
20.03057,265700
20.03682,258803
20.04307,269254
20.04933,306539
20.05558,341643
20.06183,352378
20.06808,323497
20.07435,262150
20.08060,221885
20.08685,220286
20.09312,235756
20.09937,267458
20.10562,289239
20.11188,267149
20.11813,240256
20.12438,213963
20.13065,207090
20.13690,206320
20.14315,216461
20.14942,222734
20.15567,218172
20.16192,213838
20.16818,207081
20.17443,208145
20.18068,201621
20.18695,208451
20.19320,217462
20.19945,237984
20.20572,273649
20.21197,300895
20.21822,326313
20.22448,384439
20.23073,428451
20.23698,440980
20.24325,412716
20.24950,366754
20.25575,312819
20.26202,266130
20.26827,255392
20.27452,243236
20.28077,240622
20.28703,267180
20.29328,374717
20.29953,668461
20.30580,1127549
20.31205,1508744
20.31830,1495556
20.32457,1114130
20.33082,661490
20.33707,404648
20.34333,314542
20.34958,314548
20.35583,332918
20.36210,318675
20.36835,289997
20.37460,256752
20.38087,246673
20.38712,246938
20.39337,255593
20.39963,258042
20.40588,273386
20.41213,288781
20.41840,348449
20.42465,470466
20.43090,684991
20.43717,1142230
20.44342,1888704
20.44967,2472716
20.45593,2335219
20.46218,1757186
20.46843,1027909
20.47470,634485
20.48095,605001
20.48720,883128
20.49345,1098496
20.49972,1016735
20.50597,735246
20.51222,504069
20.51848,383728
20.52473,378284
20.53098,378050
20.53725,377996
20.54350,411452
20.54975,481643
20.55602,615342
20.56227,734193
20.56852,696177
20.57478,561865
20.58103,427072
20.58728,401220
20.59355,425768
20.59980,459286
20.60605,475483
20.61232,446553
20.61857,380976
20.62482,330069
20.63108,277089
20.63733,244527
20.64358,235633
20.64985,257410
20.65610,308517
20.66235,356145
20.66862,370363
20.67487,345262
20.68112,321706
20.68738,287316
20.69363,263412
20.69988,254559
20.70615,286409
20.71240,422346
20.71865,719080
20.72490,1195949
20.73117,1592996
20.73742,1525690
20.74367,1205624
20.74993,772138
20.75618,579786
20.76243,600464
20.76870,843777
20.77495,1193527
20.78120,1321571
20.78747,1153094
20.79372,837838
20.79997,610185
20.80623,441141
20.81248,359786
20.81873,304207
20.82500,273420
20.83125,274918
20.83750,301483
20.84377,330878
20.85002,348134
20.85627,345653
20.86253,331315
20.86878,324104
20.87503,301593
20.88130,282282
20.88755,275108
20.89380,288694
20.90007,303535
20.90632,319321
20.91257,342340
20.91883,345787
20.92508,358907
20.93133,392009
20.93758,534548
20.94385,865297
20.95010,1313239
20.95635,1571783
20.96262,1456674
20.96887,1100377
20.97512,758045
20.98138,596065
20.98763,501132
20.99388,415003
21.00015,387951
21.00640,475173
21.01265,647881
21.01892,870487
21.02517,913711
21.03142,772897
21.03768,592381
21.04393,483963
21.05018,438070
21.05645,425066
21.06270,400241
21.06895,378137
21.07522,381769
21.08147,399076
21.08772,431550
21.09398,420390
21.10023,364418
21.10648,309875
21.11275,286943
21.11900,310455
21.12525,331517
21.13152,316524
21.13777,291813
21.14402,271105
21.15027,255931
21.15653,246873
21.16278,251355
21.16903,259164
21.17530,275389
21.18155,281129
21.18780,282618
21.19407,269392
21.20032,262723
21.20657,261865
21.21283,271344
21.21908,276185
21.22533,281264
21.23160,281116
21.23785,319222
21.24410,376809
21.25037,446624
21.25662,476469
21.26287,423226
21.26913,365578
21.27538,356195
21.28163,408279
21.28790,470893
21.29415,487053
21.30040,458425
21.30667,386866
21.31292,312707
21.31917,279089
21.32543,284354
21.33168,305072
21.33793,321961
21.34420,295716
21.35045,277348
21.35670,275762
21.36297,305836
21.36922,375504
21.37547,462275
21.38172,491504
21.38798,424863
21.39423,378147
21.40048,287561
21.40675,259635
21.41300,259358
21.41925,281157
21.42552,306686
21.43177,334442
21.43802,326984
21.44428,320378
21.45053,327860
21.45678,391484
21.46305,493915
21.46930,608722
21.47555,662338
21.48182,582295
21.48807,495938
21.49432,446386
21.50058,459908
21.50683,492483
21.51308,481327
21.51935,427163
21.52560,335076
21.53185,270008
21.53812,240862
21.54437,240922
21.55062,233700
21.55688,237260
21.56313,234454
21.56938,248296
21.57565,272338
21.58190,294550
21.58815,307301
21.59440,320498
21.60067,352595
21.60692,358383
21.61317,333737
21.61943,272894
21.62568,228460
21.63193,197400
21.63820,182720
21.64445,172665
21.65070,163700
21.65697,161711
21.66322,162974
21.66947,170397
21.67573,183520
21.68198,202454
21.68823,226251
21.69450,222817
21.70075,219315
21.70700,203852
21.71327,184515
21.71952,171915
21.72577,165019
21.73203,169186
21.73828,167460
21.74453,173913
21.75080,188707
21.75705,207521
21.76330,223731
21.76957,221099
21.77582,229916
21.78207,246750
21.78833,299986
21.79458,357892
21.80083,390760
21.80708,384182
21.81335,363451
21.81960,321940
21.82585,299244
21.83212,270840
21.83837,256889
21.84462,258162
21.85088,278824
21.85713,337720
21.86338,389417
21.86965,408892
21.87590,405052
21.88215,358063
21.88842,296713
21.89467,290995
21.90092,266029
21.90718,306248
21.91343,361055
21.91968,367044
21.92595,331572
21.93220,273539
21.93845,238911
21.94472,222259
21.95097,218249
21.95722,200866
21.96348,192202
21.96973,185030
21.97598,191508
21.98225,202251
21.98850,226650
21.99475,236570
22.00102,245339
22.00727,240407
22.01352,227682
22.01978,221780
22.02603,224076
22.03228,241548
22.03853,266260
22.04480,302332
22.05105,334284
22.05730,347626
22.06357,353375
22.06982,368440
22.07607,382485
22.08233,378888
22.08858,379267
22.09483,344562
22.10110,311818
22.10735,282748
22.11360,282089
22.11987,283356
22.12612,277922
22.13237,291422
22.13863,282425
22.14488,272763
22.15113,254661
22.15740,246968
22.16365,251657
22.16990,253058
22.17617,260552
22.18242,273939
22.18867,281620
22.19493,288974
22.20118,291235
22.20743,275751
22.21370,253891
22.21995,233784
22.22620,231335
22.23247,238787
22.23872,252681
22.24497,284495
22.25123,348195
22.25748,461634
22.26373,573096
22.26998,632021
22.27625,577195
22.28250,520954
22.28875,449919
22.29502,414087
22.30127,389328
22.30752,359575
22.31378,320001
22.32003,305256
22.32628,313647
22.33255,312932
22.33880,306525
22.34505,311405
22.35132,356554
22.35757,548525
22.36382,934202
22.37008,1493151
22.37633,1859978
22.38258,1689595
22.38885,1088829
22.39510,604740
22.40135,383764
22.40762,309939
22.41387,299130
22.42012,309644
22.42638,334279
22.43263,371245
22.43888,428299
22.44515,500052
22.45140,599547
22.45765,736995
22.46392,885409
22.47017,984611
22.47642,891547
22.48267,701288
22.48893,519862
22.49518,424942
22.50143,372582
22.50770,350107
22.51395,339385
22.52020,304041
22.52647,298282
22.53272,307399
22.53897,380904
22.54523,499967
22.55148,699457
22.55773,811195
22.56400,819453
22.57025,705578
22.57650,581573
22.58277,468237
22.58902,391476
22.59527,357657
22.60153,337103
22.60778,327414
22.61403,320914
22.62030,330908
22.62655,339467
22.63280,343945
22.63907,366227
22.64532,421830
22.65157,477950
22.65783,500114
22.66408,439316
22.67033,408981
22.67660,405814
22.68285,415455
22.68910,433847
22.69537,429003
22.70162,398442
22.70787,338927
22.71412,297592
22.72038,272133
22.72663,269018
22.73288,265711
22.73915,265983
22.74540,281064
22.75165,293867
22.75792,301699
22.76417,309624
22.77042,319454
22.77668,348764
22.78293,451595
22.78918,888934
22.79545,2353041
22.80170,5799952
22.80795,1.141978E+07
22.81422,1.681809E+07
22.82047,1.99315E+07
22.82672,1.742901E+07
22.83298,9592012
22.83923,3684425
22.84548,1503133
22.85175,834998
22.85800,572614
22.86425,525824
22.87052,471512
22.87677,455351
22.88302,423462
22.88928,416179
22.89553,410116
22.90178,401432
22.90805,380011
22.91430,367238
22.92055,388950
22.92680,383688
22.93307,383545
22.93932,381495
22.94557,396100
22.95183,391013
22.95808,374634
22.96433,376500
22.97060,373436
22.97685,409877
22.98310,473409
22.98937,544425
22.99562,559384
23.00187,528384
23.00813,449471
23.01438,400197
23.02063,357553
23.02690,330450
23.03315,319931
23.03940,320609
23.04567,326326
23.05192,332403
23.05817,352793
23.06443,412525
23.07068,592466
23.07693,901637
23.08320,1211279
23.08945,1257143
23.09570,1022765
23.10197,763578
23.10822,533819
23.11447,396892
23.12073,349066
23.12698,323129
23.13323,313595
23.13948,302818
23.14575,309081
23.15200,299832
23.15825,283032
23.16452,277626
23.17077,266244
23.17702,261461
23.18328,270179
23.18953,273053
23.19578,278814
23.20205,290570
23.20830,290028
23.21455,287192
23.22082,282646
23.22707,272534
23.23332,267507
23.23958,269006
23.24583,278202
23.25208,292723
23.25835,303105
23.26460,303652
23.27085,298762
23.27712,277583
23.28337,269680
23.28962,265579
23.29588,285364
23.30213,333661
23.30838,436503
23.31465,593166
23.32090,706796
23.32715,755083
23.33342,667386
23.33967,497994
23.34592,396477
23.35218,340804
23.35843,315210
23.36468,299726
23.37093,287975
23.37720,285894
23.38345,287551
23.38970,290403
23.39597,291669
23.40222,289621
23.40847,290002
23.41473,283832
23.42098,284376
23.42723,288613
23.43350,286341
23.43975,309852
23.44600,341900
23.45227,407486
23.45852,482381
23.46477,543514
23.47103,585043
23.47728,593944
23.48353,650614
23.48980,719497
23.49605,775511
23.50230,781150
23.50857,824606
23.51482,940752
23.52107,1095573
23.52733,1195456
23.53358,1040064
23.53983,777152
23.54610,555930
23.55235,439298
23.55860,409848
23.56487,428525
23.57112,514016
23.57737,704276
23.58362,895761
23.58988,983088
23.59613,966895
23.60238,804379
23.60865,654977
23.61490,516629
23.62115,445894
23.62742,407680
23.63367,406457
23.63992,439497
23.64618,497480
23.65243,522462
23.65868,480853
23.66495,429532
23.67120,368507
23.67745,334034
23.68372,338863
23.68997,356623
23.69622,381824
23.70248,397080
23.70873,393872
23.71498,414534
23.72125,513923
23.72750,695399
23.73375,908016
23.74002,1048637
23.74627,953543
23.75252,736562
23.75878,534979
23.76503,421633
23.77128,377987
23.77755,354606
23.78380,367581
23.79005,362517
23.79630,371276
23.80257,375502
23.80882,398020
23.81507,439306
23.82133,497766
23.82758,530563
23.83383,518078
23.84010,478015
23.84635,419313
23.85260,390105
23.85887,373832
23.86512,367373
23.87137,373256
23.87763,402902
23.88388,474573
23.89013,593577
23.89640,740805
23.90265,790621
23.90890,724834
23.91517,596016
23.92142,499491
23.92767,450840
23.93393,433037
23.94018,433278
23.94643,439015
23.95270,492588
23.95895,786202
23.96520,1658192
23.97147,3446970
23.97772,6066499
23.98397,9646053
23.99023,1.540227E+07
23.99648,2.347483E+07
24.00273,2.885437E+07
24.00900,3.344626E+07
24.01525,2.857881E+07
24.02150,1.938199E+07
24.02775,1.005259E+07
24.03402,4402811
24.04027,2210920
24.04652,1483044
24.05278,1156748
24.05903,987063
24.06528,912448
24.07155,995046
24.07780,1217481
24.08405,1414357
24.09032,1420448
24.09657,1381760
24.10282,1563546
24.10908,2460094
24.11533,4272811
24.12158,6494947
24.12785,7358250
24.13410,7037774
24.14035,5109496
24.14662,2953033
24.15287,1585435
24.15912,1008514
24.16538,785373
24.17163,699284
24.17788,661906
24.18415,703490
24.19040,820906
24.19665,1122837
24.20292,1851447
24.20917,3912196
24.21542,7818655
24.22168,1.424137E+07
24.22793,2.218652E+07
24.23418,3.115839E+07
24.24043,3.814248E+07
24.24670,4.187712E+07
24.25295,4.392056E+07
24.25920,4.409589E+07
24.26547,4.301698E+07
24.27172,4.140201E+07
24.27797,4.053989E+07
24.28423,4.136596E+07
24.29048,1.958307E+07
24.29673,4914703
24.30300,2694184
24.30925,2022144
24.31550,1678125
24.32177,1469081
24.32802,1308541
24.33427,1238528
24.34053,1198716
24.34678,1159061
24.35303,1169234
24.35930,1162846
24.36555,1198908
24.37180,1243086
24.37807,1302452
24.38432,1332496
24.39057,1316242
24.39683,1223509
24.40308,1094278
24.40933,1005504
24.41560,927595
24.42185,914690
24.42810,993169
24.43437,1246317
24.44062,1735944
24.44687,2208051
24.45312,2476261
24.45938,2192503
24.46563,1702554
24.47188,1209449
24.47815,936261
24.48440,787397
24.49065,711728
24.49692,669661
24.50317,636104
24.50942,608959
24.51568,597479
24.52193,585885
24.52818,572417
24.53445,565269
24.54070,556884
24.54695,542189
24.55322,537755
24.55947,538032
24.56572,528648
24.57198,521100
24.57823,537899
24.58448,558057
24.59075,577897
24.59700,566264
24.60325,562543
24.60952,528643
24.61577,498268
24.62202,468517
24.62828,446717
24.63453,442149
24.64078,430330
24.64705,434486
24.65330,429899
24.65955,418171
24.66582,413748
24.67207,410791
24.67832,429719
24.68457,466179
24.69083,507572
24.69708,536210
24.70333,536760
24.70960,518975
24.71585,492258
24.72210,488308
24.72837,460533
24.73462,434661
24.74087,414474
24.74713,402598
24.75338,377472
24.75963,369216
24.76590,377302
24.77215,393493
24.77840,428049
24.78467,445415
24.79092,480254
24.79717,456866
24.80343,431271
24.80968,385397
24.81593,346514
24.82220,323338
24.82845,312395
24.83470,304327
24.84097,297881
24.84722,281855
24.85347,282853
24.85973,284353
24.86598,283032
24.87223,296117
24.87850,321497
24.88475,365560
24.89100,446069
24.89725,527810
24.90352,548355
24.90977,503626
24.91602,457077
24.92228,437149
24.92853,432389
24.93478,466002
24.94105,478344
24.94730,555650
24.95355,745021
24.95982,961916
24.96607,985373
24.97232,865605
24.97858,672306
24.98483,504021
24.99108,409200
24.99735,367533
25.00360,347233
25.00985,335827
25.01612,322072
25.02237,328665
25.02862,332382
25.03488,346754
25.04113,354795
25.04738,358426
25.05365,341884
25.05990,331333
25.06615,323045
25.07242,310226
25.07867,308377
25.08492,319204
25.09118,311380
25.09743,310944
25.10368,306318
25.10995,311156
25.11620,309348
25.12245,300633
25.12870,300520
25.13497,302530
25.14122,295954
25.14747,281992
25.15373,265955
25.15998,260209
25.16623,260463
25.17250,264395
25.17875,296008
25.18500,355687
25.19127,442376
25.19752,495007
25.20377,481196
25.21003,418510
25.21628,343382
25.22253,291879
25.22880,269705
25.23505,259102
25.24130,246553
25.24757,245218
25.25382,243255
25.26007,244603
25.26633,241274
25.27258,246136
25.27883,260089
25.28510,300610
25.29135,387897
25.29760,500857
25.30387,594926
25.31012,591882
25.31637,513745
25.32263,417671
25.32888,338590
25.33513,300639
25.34138,271360
25.34765,261878
25.35390,252964
25.36015,250776
25.36642,256186
25.37267,254189
25.37892,259772
25.38518,274986
25.39143,301190
25.39768,374556
25.40395,584855
25.41020,988945
25.41645,1415749
25.42272,1518971
25.42897,1323991
25.43522,967310
25.44148,712351
25.44773,564112
25.45398,482928
25.46025,444922
25.46650,400739
25.47275,370931
25.47902,352626
25.48527,356541
25.49152,387900
25.49778,476282
25.50403,602583
25.51028,702155
25.51655,708981
25.52280,637639
25.52905,563235
25.53532,542695
25.54157,617691
25.54782,743790
25.55407,808497
25.56033,730284
25.56658,581238
25.57283,454032
25.57910,359980
25.58535,318657
25.59160,293856
25.59787,287905
25.60412,286541
25.61037,298219
25.61663,298151
25.62288,293627
25.62913,291279
25.63540,285674
25.64165,272838
25.64790,261882
25.65417,251170
25.66042,242520
25.66667,240533
25.67293,241284
25.67918,240809
25.68543,237179
25.69170,240359
25.69795,240152
25.70420,238528
25.71047,235433
25.71672,227515
25.72297,226252
25.72923,223884
25.73548,222254
25.74173,223787
25.74800,226035
25.75425,227353
25.76050,227373
25.76677,232318
25.77302,235658
25.77927,230971
25.78552,225413
25.79178,226476
25.79803,219081
25.80428,215481
25.81055,206608
25.81680,203677
25.82305,205801
25.82932,200772
25.83557,201300
25.84182,204724
25.84808,205273
25.85433,207476
25.86058,214642
25.86685,211410
25.87310,215695
25.87935,209896
25.88562,210391
25.89187,204838
25.89812,205827
25.90438,202397
25.91063,201550
25.91688,201768
25.92315,203565
25.92940,202966
25.93565,206733
25.94192,210474
25.94817,206375
25.95442,208468
25.96068,199926
25.96693,203572
25.97318,207043
25.97945,217508
25.98570,228635
25.99195,235064
25.99820,226474
26.00447,218471
26.01072,204442
26.01697,198982
26.02323,190830
26.02948,197379
26.03573,201319
26.04200,205606
26.04825,206630
26.05450,217474
26.06077,219264
26.06702,218575
26.07327,211454
26.07953,200347
26.08578,197885
26.09203,190977
26.09830,184656
26.10455,179125
26.11080,183648
26.11707,179594
26.12332,177810
26.12957,173984
26.13583,173188
26.14208,169481
26.14833,167147
26.15460,169536
26.16085,168673
26.16710,164606
26.17337,173547
26.17962,174814
26.18587,173831
26.19213,171716
26.19838,175456
26.20463,170042
26.21088,165682
26.21715,169109
26.22340,174405
26.22965,167292
26.23592,160834
26.24217,163079
26.24842,168101
26.25468,172013
26.26093,173934
26.26718,161101
26.27345,162977
26.27970,171311
26.28595,171519
26.29222,164662
26.29847,169014
26.30472,176600
26.31098,177291
26.31723,183805
26.32348,180255
26.32975,170911
26.33600,178637
26.34225,185508
26.34852,185066
26.35477,177676
26.36102,197524
26.36728,253728
26.37353,388071
26.37978,664472
26.38605,982135
26.39230,1146184
26.39855,1064362
26.40482,747537
26.41107,458951
26.41732,317207
26.42358,253342
26.42983,235429
26.43608,217113
26.44233,203710
26.44860,205579
26.45485,205494
26.46110,213990
26.46737,216551
26.47362,219770
26.47987,214559
26.48613,202971
26.49238,203550
26.49863,204097
26.50490,200808
26.51115,200560
26.51740,201950
26.52367,208682
26.52992,216044
26.53617,227985
26.54243,238595
26.54868,237407
26.55493,223287
26.56120,203991
26.56745,198410
26.57370,192680
26.57997,188868
26.58622,184315
26.59247,191345
26.59873,188847
26.60498,198635
26.61123,211494
26.61750,223218
26.62375,230005
26.63000,224401
26.63627,215362
26.64252,206122
26.64877,224346
26.65502,285475
26.66128,444566
26.66753,810856
26.67378,1300652
26.68005,1685138
26.68630,1665847
26.69255,1375325
26.69882,995064
26.70507,757302
26.71132,624106
26.71758,535389
26.72383,454294
26.73008,399092
26.73635,357143
26.74260,321825
26.74885,313047
26.75512,316922
26.76137,340350
26.76762,409072
26.77388,484684
26.78013,522543
26.78638,488417
26.79265,446579
26.79890,414631
26.80515,402646
26.81142,390235
26.81767,367761
26.82392,389395
26.83018,489993
26.83643,678684
26.84268,972968
26.84895,1089314
26.85520,975538
26.86145,710316
26.86770,471320
26.87397,358032
26.88022,331898
26.88647,340839
26.89273,409661
26.89898,462341
26.90523,638949
26.91150,1222593
26.91775,2895522
26.92400,6679493
26.93027,1.284739E+07
26.93652,1.968835E+07
26.94277,2.328141E+07
26.94903,2.399019E+07
26.95528,1.6676E+07
26.96153,7698461
26.96780,3699440
26.97405,2091497
26.98030,1410343
26.98657,920759
26.99282,660261
26.99907,517027
27.00533,468773
27.01158,522844
27.01783,742135
27.02410,1174636
27.03035,1638487
27.03660,1812534
27.04287,1565693
27.04912,1177416
27.05537,806095
27.06163,620485
27.06788,537177
27.07413,480495
27.08040,432116
27.08665,396709
27.09290,355441
27.09915,327248
27.10542,308430
27.11167,289715
27.11792,285445
27.12418,285906
27.13043,347757
27.13668,469535
27.14295,557007
27.14920,584505
27.15545,540403
27.16172,445907
27.16797,363294
27.17422,334986
27.18048,329086
27.18673,326057
27.19298,309023
27.19925,298575
27.20550,293184
27.21175,271148
27.21802,282096
27.22427,297514
27.23052,297482
27.23678,279529
27.24303,270130
27.24928,281614
27.25555,273301
27.26180,304895
27.26805,288329
27.27432,264685
27.28057,253483
27.28682,248154
27.29308,242230
27.29933,237133
27.30558,232402
27.31183,230596
27.31810,231035
27.32435,232158
27.33060,229677
27.33687,223202
27.34312,218524
27.34937,223687
27.35563,219782
27.36188,223453
27.36813,226076
27.37440,227293
27.38065,220385
27.38690,222281
27.39317,218733
27.39942,224082
27.40567,237525
27.41193,255444
27.41818,280113
27.42443,277980
27.43070,257159
27.43695,240950
27.44320,226058
27.44947,218977
27.45572,204393
27.46197,198061
27.46823,189025
27.47448,187557
27.48073,188389
27.48700,191515
27.49325,198224
27.49950,191524
27.50577,188467
27.51202,185876
27.51827,182999
27.52453,182072
27.53078,186458
27.53703,191500
27.54328,189990
27.54955,192243
27.55580,191351
27.56205,182981
27.56832,186560
27.57457,181902
27.58082,181279
27.58708,179435
27.59333,179822
27.59958,180045
27.60585,181024
27.61210,178769
27.61835,180976
27.62462,186693
27.63087,183421
27.63712,183170
27.64338,183096
27.64963,179129
27.65588,181238
27.66215,181519
27.66840,184102
27.67465,186369
27.68092,187344
27.68717,195100
27.69342,191083
27.69968,192929
27.70593,190276
27.71218,194453
27.71845,193260
27.72470,199554
27.73095,212924
27.73722,211877
27.74347,207130
27.74972,200813
27.75597,205928
27.76223,203808
27.76848,206257
27.77473,205920
27.78100,201199
27.78725,204425
27.79350,186881
27.79977,191715
27.80602,181764
27.81227,180914
27.81853,186009
27.82478,183861
27.83103,183026
27.83730,190844
27.84355,209679
27.84980,259980
27.85607,373239
27.86232,585229
27.86857,915786
27.87483,1262276
27.88108,1459675
27.88733,1248443
27.89360,955197
27.89985,713665
27.90610,552465
27.91237,460944
27.91862,394928
27.92487,354064
27.93113,332095
27.93738,301040
27.94363,284139
27.94990,275116
27.95615,263585
27.96240,260858
27.96867,252800
27.97492,245137
27.98117,239681
27.98742,244008
27.99368,243097
27.99993,245847
28.00618,249383
28.01245,238160
28.01870,236800
28.02495,226172
28.03122,222080
28.03747,219325
28.04372,215401
28.04998,208744
28.05623,210224
28.06248,210151
28.06875,209167
28.07500,199728
28.08125,202911
28.08752,196043
28.09377,201317
28.10002,200923
28.10628,198198
28.11253,198919
28.11878,200300
28.12505,200740
28.13130,202277
28.13755,198830
28.14382,203289
28.15007,199354
28.15632,194649
28.16258,195364
28.16883,198050
28.17508,196329
28.18135,196004
28.18760,195208
28.19385,192530
28.20010,195493
28.20637,190607
28.21262,191578
28.21887,192416
28.22513,197693
28.23138,195790
28.23763,197062
28.24390,193718
28.25015,191932
28.25640,191390
28.26267,197039
28.26892,188352
28.27517,194970
28.28143,194996
28.28768,190018
28.29393,189528
28.30020,195941
28.30645,188717
28.31270,191449
28.31897,185038
28.32522,185754
28.33147,187242
28.33773,186037
28.34398,185941
28.35023,188762
28.35650,185993
28.36275,186025
28.36900,191611
28.37527,189727
28.38152,185997
28.38777,192362
28.39403,193475
28.40028,190788
28.40653,192072
28.41280,192006
28.41905,194033
28.42530,191509
28.43155,188861
28.43782,189264
28.44407,186252
28.45032,188460
28.45658,189666
28.46283,184542
28.46908,183636
28.47535,187472
28.48160,184726
28.48785,181876
28.49412,180413
28.50037,187624
28.50662,181175
28.51288,183203
28.51913,192310
28.52538,190814
28.53165,187358
28.53790,186372
28.54415,192968
28.55042,182534
28.55667,185703
28.56292,182893
28.56918,190097
28.57543,183770
28.58168,186472
28.58795,181990
28.59420,178068
28.60045,182275
28.60672,180509
28.61297,182443
28.61922,177949
28.62548,180203
28.63173,184097
28.63798,179386
28.64423,180636
28.65050,180555
28.65675,182051
28.66300,184920
28.66927,183538
28.67552,177628
28.68177,179119
28.68803,184681
28.69428,181958
28.70053,180109
28.70680,182457
28.71305,183342
28.71930,180910
28.72557,187009
28.73182,179874
28.73807,191506
28.74433,186891
28.75058,189366
28.75683,184693
28.76310,183061
28.76935,179961
28.77560,175321
28.78187,179905
28.78812,174802
28.79437,178233
28.80063,180413
28.80688,178780
28.81313,177768
28.81940,175242
28.82565,180326
28.83190,176927
28.83817,176283
28.84442,180636
28.85067,175738
28.85692,176598
28.86318,174250
28.86943,175791
28.87568,172107
28.88195,172182
28.88820,173238
28.89445,174683
28.90072,172412
28.90697,170817
28.91322,172482
28.91948,172492
28.92573,172726
28.93198,175532
28.93825,168766
28.94450,173266
28.95075,172261
28.95702,176917
28.96327,169614
28.96952,176697
28.97578,174621
28.98203,169959
28.98828,169454
28.99455,172505
29.00080,172634
29.00705,172698
29.01332,174246
29.01957,182606
29.02582,173765
29.03208,179688
29.03833,176833
29.04458,174198
29.05085,169019
29.05710,173935
29.06335,171697
29.06962,175063
29.07587,170837
29.08212,174637
29.08837,181566
29.09463,171228
29.10088,173600
29.10713,174565
29.11340,172100
29.11965,170337
29.12590,170394
29.13217,169235
29.13842,174897
29.14467,170169
29.15093,170731
29.15718,170101
29.16343,175829
29.16970,167363
29.17595,176492
29.18220,168802
29.18847,171761
29.19472,172948
29.20097,169674
29.20723,178590
29.21348,189416
29.21973,218878
29.22600,268764
29.23225,337282
29.23850,439825
29.24477,584327
29.25102,709997
29.25727,756080
29.26353,747282
29.26978,653958
29.27603,551416
29.28230,460182
29.28855,392051
29.29480,341275
29.30105,308356
29.30732,283641
29.31357,269447
29.31982,259250
29.32608,244877
29.33233,237855
29.33858,230654
29.34485,225416
29.35110,217620
29.35735,213582
29.36362,212779
29.36987,207274
29.37612,210136
29.38238,202140
29.38863,204331
29.39488,196846
29.40115,202912
29.40740,191129
29.41365,193420
29.41992,197844
29.42617,191670
29.43242,183824
29.43868,190257
29.44493,183064
29.45118,186715
29.45745,181522
29.46370,181741
29.46995,182681
29.47622,190115
29.48247,179850
29.48872,182185
29.49498,181834
29.50123,177962
29.50748,178757
29.51373,178710
29.52000,171023
29.52625,178756
29.53250,175380
29.53877,179081
29.54502,171092
29.55127,173076
29.55753,173410
29.56378,177423
29.57003,172143
29.57630,173127
29.58255,175348
29.58880,180884
29.59507,173186
29.60132,170872
29.60757,168519
29.61383,178987
29.62008,170936
29.62633,176281
29.63260,171869
29.63885,170604
29.64510,170808
29.65137,170287
29.65762,172864
29.66387,170405
29.67013,166124
29.67638,168970
29.68263,169270
29.68890,170713
29.69515,169622
29.70140,164912
29.70767,168342
29.71392,166453
29.72017,170346
29.72643,169981
29.73268,165692
29.73893,168726
29.74518,170760
29.75145,164790
29.75770,164973
29.76395,168237
29.77022,170002
29.77647,167947
29.78272,164909
29.78898,165152
29.79523,163974
29.80148,169478
29.80775,166512
29.81400,172719
29.82025,166308
29.82652,164409
29.83277,164070
29.83902,164376
29.84528,165887
29.85153,166132
29.85778,162351
29.86405,163550
29.87030,166508
29.87655,168148
29.88282,166602
29.88907,167603
29.89532,165342
29.90158,168238
29.90783,162209
29.91408,167230
29.92035,171632
29.92660,163806
29.93285,170805
29.93912,161269
29.94537,161035
29.95162,169522
29.95787,161146
29.96413,160525
29.97038,163515
29.97663,158174
29.98290,167620
29.98915,164059
29.99540,164610
30.00167,159382
30.00792,160935
30.01417,161967
30.02043,163833
30.02668,158980
30.03293,161158
30.03920,161020
30.04545,164032
30.05170,160202
30.05797,160155
30.06422,164702
30.07047,160182
30.07673,164011
30.08298,158955
30.08923,164311
30.09550,165076
30.10175,162065
30.10800,160352
30.11427,160651
30.12052,162105
30.12677,164880
30.13303,159011
30.13928,157829
30.14553,159602
30.15180,158333
30.15805,157841
30.16430,159824
30.17057,159167
30.17682,159196
30.18307,157816
30.18932,157136
30.19558,156950
30.20183,158980
30.20808,162568
30.21435,159626
30.22060,161904
30.22685,163566
30.23312,161259
30.23937,162955
30.24562,158415
30.25188,161041
30.25813,161448
30.26438,157568
30.27065,160915
30.27690,160237
30.28315,157661
30.28942,156878
30.29567,156065
30.30192,159662
30.30818,154249
30.31443,160666
30.32068,153794
30.32695,156148
30.33320,156663
30.33945,156303
30.34572,158133
30.35197,157817
30.35822,156794
30.36448,151699
30.37073,159111
30.37698,155831
30.38325,154899
30.38950,158603
30.39575,153495
30.40200,157774
30.40827,153078
30.41452,152740
30.42077,156300
30.42703,158710
30.43328,152399
30.43953,155472
30.44580,159058
30.45205,155581
30.45830,157114
30.46457,158112
30.47082,156700
30.47707,155496
30.48333,155433
30.48958,151916
30.49583,152777
30.50210,154863
30.50835,151151
30.51460,155457
30.52087,152466
30.52712,153774
30.53337,155136
30.53963,151151
30.54588,151056
30.55213,154899
30.55840,153841
30.56465,153648
30.57090,150686
30.57717,156195
30.58342,151904
30.58967,157539
30.59593,149041
30.60218,149147
30.60843,150837
30.61470,149087
30.62095,153439
30.62720,150326
30.63345,155166
30.63972,154453
30.64597,150459
30.65222,148382
30.65848,150424
30.66473,153455
30.67098,153506
30.67725,159092
30.68350,160808
30.68975,165550
30.69602,165310
30.70227,175981
30.70852,174453
30.71478,181198
30.72103,182773
30.72728,174951
30.73355,169892
30.73980,168084
30.74605,164029
30.75232,163349
30.75857,161290
30.76482,157041
30.77108,154960
30.77733,152115
30.78358,159038
30.78985,155196
30.79610,158337
30.80235,155455
30.80862,152756
30.81487,154378
30.82112,154670
30.82738,151785
30.83363,154881
30.83988,147318
30.84613,153865
30.85240,153422
30.85865,152950
30.86490,156767
30.87117,150687
30.87742,153559
30.88367,153668
30.88993,156277
30.89618,154860
30.90243,154190
30.90870,156375
30.91495,151959
30.92120,156779
30.92747,148744
30.93372,154124
30.93997,154461
30.94623,149616
30.95248,156348
30.95873,151563
30.96500,160072
30.97125,157583
30.97750,165991
30.98377,180668
30.99002,200692
30.99627,221181
31.00253,243115
31.00878,282336
31.01503,318000
31.02130,331326
31.02755,343061
31.03380,343741
31.04007,327426
31.04632,302410
31.05257,276590
31.05883,247844
31.06508,222985
31.07133,207855
31.07758,195452
31.08385,190724
31.09010,185163
31.09635,182158
31.10262,182173
31.10887,180533
31.11512,174490
31.12138,172009
31.12763,172301
31.13388,166012
31.14015,165094
31.14640,165228
31.15265,161080
31.15892,169850
31.16517,165773
31.17142,167041
31.17768,161862
31.18393,161622
31.19018,162916
31.19645,159945
31.20270,161942
31.20895,160795
31.21522,152739
31.22147,163296
31.22772,156142
31.23398,156371
31.24023,159808
31.24648,160725
31.25275,153059
31.25900,158353
31.26525,156063
31.27152,158529
31.27777,155274
31.28402,155611
31.29027,151236
31.29653,151679
31.30278,151203
31.30903,153969
31.31530,154023
31.32155,157979
31.32780,152068
31.33407,154272
31.34032,153011
31.34657,153627
31.35283,153188
31.35908,153290
31.36533,149790
31.37160,149233
31.37785,149731
31.38410,147668
31.39037,147687
31.39662,147787
31.40287,155883
31.40913,152771
31.41538,146398
31.42163,146281
31.42790,150427
31.43415,147572
31.44040,151434
31.44667,154900
31.45292,150405
31.45917,156759
31.46543,150552
31.47168,153876
31.47793,149784
31.48420,148436
31.49045,149265
31.49670,145421
31.50295,148387
31.50922,145348
31.51547,149665
31.52172,150166
31.52798,149184
31.53423,148642
31.54048,149113
31.54675,152363
31.55300,144145
31.55925,147568
31.56552,149106
31.57177,145111
31.57802,142984
31.58428,148987
31.59053,142674
31.59678,146702
31.60305,145836
31.60930,144074
31.61555,145157
31.62182,145037
31.62807,146548
31.63432,140183
31.64058,148974
31.64683,144182
31.65308,144366
31.65935,148342
31.66560,142921
31.67185,145376
31.67812,141763
31.68437,142855
31.69062,142241
31.69688,145521
31.70313,141651
31.70938,145889
31.71565,142593
31.72190,148128
31.72815,142241
31.73440,143743
31.74067,145557
31.74692,144552
31.75317,140597
31.75943,142935
31.76568,145086
31.77193,142933
31.77820,142107
31.78445,141741
31.79070,140312
31.79697,142178
31.80322,146249
31.80947,141246
31.81573,145600
31.82198,140676
31.82823,141128
31.83450,145800
31.84075,143030
31.84700,140205
31.85327,143864
31.85952,141797
31.86577,145198
31.87203,140769
31.87828,141799
31.88453,142405
31.89080,143130
31.89705,148013
31.90330,139512
31.90957,144527
31.91582,143704
31.92207,144149
31.92833,145351
31.93458,141862
31.94083,140284
31.94708,142869
31.95335,143954
31.95960,144247
31.96585,141713
31.97212,139340
31.97837,141244
31.98462,140830
31.99088,141460
31.99713,140803
32.00338,135666
32.00965,139004
32.01590,141010
32.02215,142389
32.02842,142535
32.03467,139569
32.04092,135530
32.04718,139181
32.05343,143333
32.05968,144156
32.06595,137606
32.07220,141078
32.07845,142991
32.08472,137847
32.09097,141634
32.09722,139174
32.10348,135763
32.10973,141696
32.11598,139160
32.12225,141702
32.12850,144539
32.13475,140126
32.14102,141382
32.14727,141174
32.15352,143018
32.15977,141238
32.16603,141731
32.17228,140546
32.17853,141145
32.18480,138151
32.19105,143671
32.19730,139688
32.20357,136449
32.20982,140881
32.21607,141176
32.22233,135029
32.22858,137230
32.23483,137076
32.24110,137744
32.24735,142171
32.25360,137445
32.25987,139874
32.26612,137360
32.27237,136968
32.27863,144274
32.28488,143554
32.29113,141111
32.29740,137670
32.30365,139033
32.30990,136244
32.31617,137855
32.32242,137906
32.32867,139188
32.33493,137225
32.34118,135547
32.34743,141822
32.35370,138045
32.35995,135883
32.36620,138571
32.37247,134026
32.37872,136186
32.38497,135325
32.39122,135947
32.39748,141339
32.40373,135967
32.40998,132717
32.41625,139689
32.42250,135522
32.42875,135170
32.43502,138272
32.44127,138364
32.44752,142235
32.45378,134532
32.46003,133085
32.46628,133565
32.47255,136695
32.47880,136782
32.48505,136483
32.49132,137543
32.49757,137473
32.50382,133213
32.51008,137702
32.51633,135935
32.52258,134241
32.52885,135516
32.53510,137222
32.54135,139322
32.54762,134539
32.55387,135111
32.56012,133131
32.56638,133314
32.57263,134570
32.57888,137158
32.58515,133086
32.59140,136794
32.59765,137685
32.60390,133272
32.61017,134582
32.61642,136433
32.62267,137428
32.62893,133480
32.63518,138560
32.64143,135033
32.64770,133906
32.65395,135347
32.66020,130838
32.66647,134906
32.67272,134606
32.67897,132752
32.68523,136128
32.69148,138056
32.69773,137091
32.70400,133900
32.71025,136380
32.71650,134807
32.72277,131224
32.72902,135269
32.73527,130804
32.74153,132699
32.74778,130721
32.75403,136578
32.76030,138118
32.76655,133190
32.77280,138556
32.77907,133382
32.78532,136585
32.79157,137703
32.79783,135709
32.80408,132437
32.81033,134309
32.81660,128773
32.82285,133025
32.82910,131888
32.83535,136990
32.84162,131762
32.84787,134785
32.85412,136127
32.86038,132901
32.86663,131031
32.87288,135295
32.87915,133314
32.88540,129079
32.89165,135319
32.89792,137325
32.90417,134547
32.91042,129650
32.91668,135122
32.92293,135079
32.92918,131035
32.93545,136647
32.94170,132033
32.94795,130900
32.95422,136305
32.96047,132619
32.96672,132924
32.97298,133837
32.97923,132552
32.98548,133838
32.99175,134903
32.99800,131061
33.00425,128895
33.01052,133210
33.01677,131062
33.02302,133593
33.02928,133087
33.03553,129642
33.04178,132982
33.04803,130912
33.05430,130676
33.06055,130918
33.06680,131093
33.07307,127713
33.07932,130293
33.08557,131283
33.09183,130502
33.09808,132634
33.10433,131415
33.11060,125862
33.11685,128524
33.12310,132679
33.12937,129496
33.13562,133369
33.14187,135391
33.14813,135616
33.15438,133742
33.16063,142677
33.16690,138064
33.17315,140793
33.17940,145149
33.18567,141259
33.19192,147456
33.19817,144960
33.20443,145277
33.21068,143314
33.21693,142813
33.22320,142730
33.22945,140373
33.23570,138083
33.24197,133287
33.24822,133397
33.25447,129882
33.26073,135632
33.26698,133315
33.27323,129785
33.27948,131981
33.28575,132500
33.29200,132078
33.29825,128260
33.30452,133331
33.31077,126432
33.31702,134746
33.32328,133841
33.32953,135000
33.33578,134067
33.34205,136844
33.34830,140508
33.35455,143495
33.36082,148456
33.36707,153339
33.37332,157972
33.37958,164781
33.38583,173680
33.39208,175816
33.39835,175333
33.40460,175582
33.41085,177436
33.41712,172679
33.42337,168879
33.42962,166203
33.43588,160017
33.44213,153541
33.44838,146850
33.45465,144095
33.46090,138540
33.46715,138019
33.47342,139407
33.47967,132696
33.48592,138063
33.49217,134729
33.49843,129446
33.50468,131510
33.51093,130161
33.51720,138532
33.52345,133495
33.52970,132568
33.53597,129348
33.54222,134461
33.54847,135455
33.55473,133629
33.56098,130529
33.56723,134302
33.57350,129251
33.57975,130969
33.58600,132006
33.59227,128590
33.59852,133547
33.60477,132462
33.61103,130731
33.61728,128978
33.62353,128686
33.62980,129583
33.63605,131784
33.64230,128784
33.64857,131895
33.65482,130088
33.66107,134249
33.66733,129344
33.67358,131184
33.67983,131105
33.68610,133710
33.69235,128578
33.69860,130823
33.70487,127108
33.71112,128003
33.71737,127292
33.72362,127671
33.72988,128814
33.73613,128860
33.74238,127422
33.74865,127782
33.75490,130588
33.76115,127938
33.76742,129356
33.77367,126637
33.77992,131038
33.78618,127028
33.79243,126329
33.79868,126905
33.80495,124684
33.81120,130007
33.81745,127189
33.82372,125800
33.82997,130787
33.83622,129330
33.84248,127458
33.84873,127936
33.85498,125089
33.86125,124621
33.86750,127794
33.87375,125212
33.88002,125503
33.88627,126415
33.89252,125871
33.89878,125557
33.90503,128515
33.91128,128182
33.91755,125492
33.92380,124090
33.93005,127610
33.93630,127050
33.94257,125277
33.94882,123704
33.95507,125839
33.96133,122781
33.96758,123074
33.97383,127608
33.98010,124356
33.98635,127938
33.99260,124569
33.99887,128682
34.00512,122621
34.01137,122845
34.01763,124227
34.02388,124696
34.03013,128902
34.03640,123264
34.04265,124502
34.04890,127588
34.05517,126744
34.06142,125398
34.06767,127990
34.07393,127828
34.08018,124171
34.08643,124978
34.09270,125717
34.09895,124755
34.10520,125167
34.11147,123675
34.11772,122440
34.12397,122489
34.13023,127894
34.13648,127836
34.14273,124564
34.14898,123501
34.15525,123691
34.16150,126014
34.16775,124116
34.17402,126812
34.18027,124219
34.18652,122398
34.19278,121710
34.19903,122398
34.20528,124441
34.21155,124787
34.21780,123454
34.22405,126960
34.23032,125811
34.23657,125098
34.24282,122028
34.24908,120913
34.25533,122917
34.26158,123103
34.26785,127473
34.27410,123637
34.28035,122564
34.28662,122961
34.29287,123842
34.29912,125569
34.30538,122520
34.31163,125093
34.31788,122913
34.32415,123720
34.33040,123192
34.33665,126703
34.34292,127037
34.34917,123289
34.35542,121935
34.36168,121773
34.36793,122203
34.37418,125978
34.38043,122608
34.38670,120311
34.39295,122734
34.39920,121984
34.40547,124676
34.41172,123955
34.41797,127400
34.42423,124205
34.43048,120875
34.43673,121321
34.44300,125735
34.44925,121641
34.45550,120223
34.46177,123875
34.46802,119648
34.47427,122298
34.48053,122198
34.48678,127207
34.49303,121379
34.49930,122387
34.50555,123960
34.51180,119854
34.51807,119958
34.52432,121602
34.53057,121793
34.53683,119078
34.54308,122044
34.54933,118431
34.55560,119730
34.56185,119861
34.56810,120843
34.57437,122757
34.58062,123252
34.58687,123524
34.59312,122761
34.59938,119300
34.60563,120771
34.61188,119296
34.61815,121889
34.62440,119906
34.63065,123471
34.63692,122190
34.64317,121669
34.64942,121968
34.65568,122157
34.66193,121504
34.66818,124080
34.67445,119208
34.68070,123648
34.68695,125387
34.69322,122971
34.69947,120558
34.70572,117278
34.71198,120681
34.71823,121001
34.72448,119804
34.73075,122688
34.73700,122869
34.74325,115973
34.74952,120540
34.75577,120090
34.76202,119285
34.76828,122911
34.77453,118441
34.78078,118018
34.78705,118529
34.79330,122713
34.79955,122378
34.80580,121955
34.81207,117828
34.81832,120363
34.82457,120454
34.83083,123505
34.83708,120053
34.84333,119300
34.84960,117446
34.85585,120181
34.86210,117409
34.86837,121586
34.87462,121670
34.88087,117263
34.88713,119577
34.89338,117817
34.89963,117902
34.90590,119479
34.91215,117219
34.91840,118862
34.92467,123035
34.93092,117615
34.93717,116321
34.94343,120084
34.94968,118251
34.95593,115359
34.96220,118811
34.96845,115616
34.97470,120347
34.98097,121662
34.98722,116645
34.99347,118882
34.99973,116767
35.00598,116662
35.01223,123254
35.01850,123356
35.02475,117726
35.03100,121144
35.03725,117392
35.04352,116786
35.04977,120532
35.05602,115986
35.06228,120264
35.06853,118477
35.07478,118915
35.08105,119145
35.08730,120656
35.09355,119332
35.09982,122467
35.10607,118432
35.11232,114406
35.11858,120705
35.12483,119499
35.13108,118761
35.13735,114981
35.14360,116879
35.14985,119972
35.15612,117509
35.16237,118629
35.16862,117796
35.17488,116273
35.18113,119330
35.18738,120998
35.19365,115185
35.19990,114304
35.20615,116942
35.21242,118393
35.21867,119739
35.22492,115559
35.23118,119064
35.23743,118318
35.24368,116714
35.24993,118326
35.25620,118700
35.26245,118338
35.26870,118995
35.27497,122186
35.28122,117710
35.28747,115862
35.29373,114289
35.29998,118249
35.30623,117429
35.31250,120373
35.31875,116958
35.32500,116310
35.33127,115568
35.33752,119981
35.34377,116277
35.35003,117562
35.35628,114768
35.36253,116802
35.36880,117900
35.37505,117300
35.38130,117596
35.38757,117473
35.39382,119309
35.40007,117576
35.40633,112560
35.41258,117095
35.41883,114900
35.42510,116305
35.43135,115981
35.43760,113620
35.44387,118001
35.45012,114260
35.45637,113560
35.46262,117546
35.46888,116537
35.47513,116260
35.48138,116192
35.48765,118889
35.49390,119624
35.50015,120130
35.50642,117606
35.51267,116550
35.51892,123000
35.52518,117207
35.53143,117090
35.53768,114852
35.54395,116494
35.55020,115425
35.55645,117006
35.56272,115420
35.56897,117288
35.57522,118638
35.58148,116755
35.58773,121167
35.59398,116007
35.60025,119416
35.60650,117401
35.61275,119320
35.61902,116322
35.62527,116965
35.63152,120867
35.63778,118135
35.64403,119429
35.65028,117418
35.65655,118382
35.66280,115100
35.66905,118276
35.67532,119143
35.68157,117504
35.68782,116742
35.69407,121297
35.70033,116538
35.70658,116058
35.71283,114817
35.71910,116350
35.72535,111855
35.73160,112934
35.73787,115523
35.74412,115602
35.75037,111651
35.75663,118306
35.76288,115093
35.76913,114023
35.77540,111522
35.78165,114347
35.78790,117229
35.79417,114410
35.80042,117991
35.80667,117776
35.81293,116535
35.81918,114441
35.82543,114721
35.83170,113794
35.83795,115639
35.84420,114260
35.85047,118994
35.85672,116353
35.86297,113956
35.86923,111895
35.87548,113808
35.88173,113620
35.88800,113632
35.89425,115727
35.90050,116498
35.90675,113952
35.91302,111729
35.91927,111263
35.92552,110469
35.93178,113904
35.93803,113390
35.94428,113570
35.95055,111802
35.95680,110705
35.96305,113586
35.96932,117322
35.97557,115738
35.98182,112232
35.98808,114226
35.99433,117469
36.00058,115031
36.00685,112855
36.01310,118139
36.01935,118222
36.02562,111911
36.03187,113411
36.03812,114802
36.04438,112380
36.05063,109886
36.05688,110720
36.06315,114143
36.06940,110792
36.07565,116512
36.08192,110963
36.08817,113497
36.09442,113754
36.10068,114315
36.10693,112349
36.11318,113042
36.11945,110863
36.12570,112307
36.13195,116510
36.13820,112411
36.14447,114548
36.15072,111803
36.15697,114634
36.16323,114479
36.16948,111675
36.17573,112288
36.18200,112635
36.18825,114626
36.19450,114703
36.20077,112850
36.20702,110491
36.21327,112094
36.21953,112341
36.22578,112099
36.23203,110907
36.23830,115616
36.24455,115757
36.25080,116487
36.25707,120018
36.26332,127623
36.26957,132399
36.27583,134192
36.28208,139817
36.28833,148155
36.29460,159618
36.30085,166839
36.30710,175886
36.31337,182130
36.31962,200612
36.32587,208508
36.33213,212025
36.33838,226439
36.34463,227421
36.35088,229383
36.35715,230357
36.36340,223717
36.36965,214631
36.37592,209452
36.38217,203547
36.38842,195105
36.39468,181584
36.40093,174137
36.40718,164457
36.41345,160654
36.41970,154871
36.42595,143683
36.43222,143087
36.43847,140471
36.44472,132697
36.45098,135530
36.45723,132833
36.46348,124981
36.46975,126983
36.47600,125842
36.48225,124212
36.48852,123750
36.49477,124311
36.50102,123303
36.50728,122779
36.51353,120566
36.51978,122365
36.52605,120886
36.53230,118834
36.53855,121315
36.54482,121911
36.55107,123882
36.55732,120322
36.56358,117768
36.56983,120436
36.57608,120831
36.58233,118368
36.58860,120647
36.59485,121566
36.60110,121129
36.60737,123515
36.61362,120508
36.61987,121999
36.62613,120614
36.63238,121902
36.63863,121107
36.64490,121536
36.65115,123829
36.65740,121390
36.66367,124726
36.66992,126491
36.67617,123121
36.68243,119926
36.68868,124000
36.69493,118895
36.70120,117419
36.70745,121550
36.71370,115948
36.71997,118158
36.72622,116855
36.73247,115924
36.73873,115430
36.74498,115019
36.75123,119158
36.75750,116106
36.76375,115607
36.77000,116986
36.77627,114490
36.78252,111812
36.78877,115205
36.79502,111876
36.80128,115111
36.80753,109807
36.81378,112899
36.82005,112187
36.82630,111980
36.83255,110149
36.83882,113697
36.84507,114958
36.85132,111378
36.85758,113804
36.86383,114004
36.87008,111405
36.87635,112134
36.88260,111530
36.88885,114083
36.89512,112183
36.90137,113676
36.90762,113177
36.91388,114943
36.92013,107366
36.92638,113672
36.93265,113516
36.93890,112674
36.94515,114895
36.95142,113561
36.95767,113669
36.96392,108473
36.97018,111701
36.97643,116806
36.98268,112934
36.98895,111542
36.99520,111640
37.00145,109949
37.00772,109718
37.01397,114900
37.02022,113327
37.02647,111383
37.03273,111896
37.03898,113198
37.04523,113562
37.05150,109320
37.05775,109299
37.06400,109822
37.07027,112217
37.07652,112940
37.08277,110251
37.08903,111471
37.09528,108635
37.10153,110379
37.10780,113702
37.11405,112840
37.12030,112124
37.12657,116419
37.13282,110060
37.13907,109049
37.14533,110290
37.15158,112218
37.15783,112708
37.16410,109877
37.17035,110457
37.17660,111845
37.18287,109859
37.18912,110578
37.19537,114605
37.20163,106882
37.20788,111277
37.21413,110590
37.22040,108903
37.22665,109808
37.23290,113552
37.23915,108272
37.24542,106855
37.25167,112237
37.25792,108073
37.26418,108364
37.27043,107935
37.27668,105271
37.28295,107252
37.28920,112471
37.29545,106366
37.30172,111102
37.30797,108022
37.31422,106695
37.32048,112161
37.32673,108558
37.33298,107311
37.33925,111238
37.34550,109245
37.35175,112401
37.35802,109108
37.36427,110427
37.37052,108861
37.37678,106875
37.38303,110106
37.38928,109985
37.39555,111718
37.40180,107742
37.40805,110807
37.41432,105625
37.42057,111104
37.42682,111633
37.43308,108535
37.43933,110284
37.44558,105659
37.45183,107190
37.45810,108729
37.46435,109993
37.47060,110876
37.47687,109489
37.48312,106048
37.48937,107493
