D:\MassHunter\GCMS\1\data\metastasis_lineages_3replicates_3runs_10302020\P_plate3_run2_10302020.D Sat Oct 31 05:52:17 2020
Start of data points
5.99345	162279
5.99972	161510
6.00597	171434
6.01222	174082
6.01848	173388
6.02473	167719
6.03098	171670
6.03725	180100
6.04350	177947
6.04975	168785
6.05602	176662
6.06227	199035
6.06852	225748
6.07478	225426
6.08103	194944
6.08728	184903
6.09355	277858
6.09980	595194
6.10605	968196
6.11232	989663
6.11857	665797
6.12482	375857
6.13108	248975
6.13733	220953
6.14358	214017
6.14985	296351
6.15610	505178
6.16235	834557
6.16862	1021715
6.17487	851001
6.18112	546557
6.18737	321238
6.19363	221873
6.19988	187142
6.20613	165147
6.21240	162458
6.21865	178299
6.22490	189442
6.23117	186757
6.23742	192248
6.24367	165288
6.24993	168834
6.25618	158675
6.26243	161183
6.26870	171466
6.27495	175992
6.28120	176838
6.28747	174175
6.29372	193724
6.29997	276892
6.30623	483180
6.31248	876895
6.31873	1520199
6.32500	2961395
6.33125	6595022
6.33750	1.250802E+07
6.34377	1.746147E+07
6.35002	1.614015E+07
6.35627	8158954
6.36253	2015327
6.36878	449318
6.37503	259305
6.38130	222795
6.38755	220497
6.39380	221316
6.40007	272100
6.40632	417429
6.41257	620383
6.41882	772857
6.42508	880069
6.43133	982187
6.43758	913672
6.44385	773401
6.45010	1192985
6.45635	3283823
6.46262	8291625
6.46887	1.619598E+07
6.47512	2.499344E+07
6.48138	3.215358E+07
6.48763	3.784182E+07
6.49388	4.191374E+07
6.50015	4.518358E+07
6.50640	4.634762E+07
6.51265	4.690233E+07
6.51892	4.630511E+07
6.52517	4.528293E+07
6.53142	4.414016E+07
6.53768	4.353332E+07
6.54393	3.53943E+07
6.55018	2449944
6.55645	1103221
6.56270	1060290
6.56895	1141296
6.57522	1539443
6.58147	2153575
6.58772	2395181
6.59398	1735451
6.60023	871794
6.60648	440898
6.61275	327870
6.61900	310426
6.62525	297672
6.63152	303270
6.63777	309854
6.64402	306387
6.65027	285279
6.65653	274958
6.66278	294211
6.66903	383954
6.67530	461177
6.68155	466588
6.68780	375370
6.69407	314997
6.70032	280669
6.70657	280831
6.71283	298002
6.71908	307087
6.72533	320947
6.73160	336292
6.73785	338128
6.74410	336279
6.75037	354629
6.75662	356522
6.76287	355753
6.76913	364971
6.77538	369260
6.78163	380500
6.78790	385937
6.79415	401874
6.80040	447430
6.80667	525817
6.81292	581643
6.81917	573858
6.82543	525265
6.83168	483576
6.83793	494298
6.84420	545680
6.85045	596131
6.85670	597745
6.86295	531068
6.86922	497444
6.87547	522898
6.88172	642982
6.88798	781825
6.89423	807604
6.90048	688186
6.90675	553775
6.91300	480889
6.91925	453537
6.92552	428597
6.93177	426118
6.93802	420949
6.94428	415261
6.95053	402275
6.95678	378947
6.96305	369876
6.96930	360220
6.97555	356180
6.98182	358741
6.98807	352026
6.99432	341062
7.00058	325215
7.00683	309307
7.01308	327207
7.01935	396918
7.02560	644551
7.03185	1432959
7.03812	3480339
7.04437	7011576
7.05062	1.034466E+07
7.05688	1.018255E+07
7.06313	6188336
7.06938	2349664
7.07563	667714
7.08190	285988
7.08815	214173
7.09440	189960
7.10067	178286
7.10692	179672
7.11317	164658
7.11943	162140
7.12568	156419
7.13193	168605
7.13820	224848
7.14445	346534
7.15070	488179
7.15697	512129
7.16322	373287
7.16947	238415
7.17573	163690
7.18198	141135
7.18823	136407
7.19450	159752
7.20075	229405
7.20700	296781
7.21327	286542
7.21952	214132
7.22577	173353
7.23203	159601
7.23828	168245
7.24453	210867
7.25080	311683
7.25705	563300
7.26330	902425
7.26957	1041945
7.27582	840413
7.28207	502792
7.28833	274151
7.29458	188365
7.30083	172185
7.30708	169643
7.31335	152966
7.31960	149401
7.32585	133650
7.33212	129873
7.33837	126066
7.34462	131137
7.35088	128359
7.35713	125126
7.36338	120766
7.36965	121277
7.37590	121792
7.38215	138764
7.38842	153853
7.39467	176088
7.40092	166209
7.40718	160396
7.41343	188695
7.41968	281990
7.42595	381526
7.43220	413124
7.43845	365125
7.44472	273858
7.45097	193055
7.45722	168856
7.46348	165139
7.46973	180649
7.47598	185818
7.48225	188834
7.48850	204917
7.49475	245642
7.50102	312399
7.50727	374956
7.51352	345505
7.51977	258135
7.52603	178257
7.53228	139147
7.53853	131977
7.54480	162687
7.55105	399123
7.55730	1566116
7.56357	5282815
7.56982	1.255087E+07
7.57607	2.131983E+07
7.58233	2.727853E+07
7.58858	2.582162E+07
7.59483	1.498494E+07
7.60110	4881008
7.60735	1792082
7.61360	1149228
7.61987	912765
7.62612	756923
7.63237	604669
7.63863	420907
7.64488	295422
7.65113	234593
7.65740	209599
7.66365	209832
7.66990	244545
7.67617	353699
7.68242	493414
7.68867	525927
7.69493	430215
7.70118	297342
7.70743	246506
7.71370	276542
7.71995	382982
7.72620	429078
7.73245	393829
7.73872	323527
7.74497	259676
7.75122	217280
7.75748	188225
7.76373	171397
7.76998	157887
7.77625	160164
7.78250	160139
7.78875	162754
7.79502	161431
7.80127	154350
7.80752	163254
7.81378	171043
7.82003	219064
7.82628	326659
7.83255	433884
7.83880	431916
7.84505	341297
7.85132	253125
7.85757	222210
7.86382	250511
7.87008	259301
7.87633	257419
7.88258	214055
7.88885	199794
7.89510	184565
7.90135	193557
7.90762	207568
7.91387	201291
7.92012	211451
7.92638	199050
7.93263	186706
7.93888	191887
7.94515	224750
7.95140	305396
7.95765	401766
7.96390	410597
7.97017	342236
7.97642	306735
7.98267	320070
7.98893	434316
7.99518	714811
8.00143	1069040
8.00770	1460811
8.01395	2055698
8.02020	2718907
8.02647	2677472
8.03272	1854860
8.03897	1129965
8.04523	907823
8.05148	1026278
8.05773	1113455
8.06400	941860
8.07025	631220
8.07650	391944
8.08277	371022
8.08902	514424
8.09527	715794
8.10153	888716
8.10778	990159
8.11403	1203735
8.12030	1447845
8.12655	1341109
8.13280	847000
8.13907	428748
8.14532	260530
8.15157	203733
8.15783	179700
8.16408	171459
8.17033	163418
8.17658	161608
8.18285	154903
8.18910	146850
8.19535	139197
8.20162	134590
8.20787	135666
8.21412	145874
8.22038	161624
8.22663	220607
8.23288	339246
8.23915	450363
8.24540	435083
8.25165	345113
8.25792	261458
8.26417	218597
8.27042	206544
8.27668	208818
8.28293	233928
8.28918	242833
8.29545	240779
8.30170	210808
8.30795	173711
8.31422	139808
8.32047	121921
8.32672	118572
8.33298	131582
8.33923	132160
8.34548	133175
8.35175	135443
8.35800	134959
8.36425	146314
8.37052	139648
8.37677	135730
8.38302	135226
8.38928	136976
8.39553	186659
8.40178	330855
8.40803	569343
8.41430	738652
8.42055	629147
8.42680	398692
8.43307	242757
8.43932	220531
8.44557	277563
8.45183	339004
8.45808	360927
8.46433	322835
8.47060	251979
8.47685	190646
8.48310	166313
8.48937	161912
8.49562	167387
8.50187	179839
8.50813	197854
8.51438	192953
8.52063	177732
8.52690	149420
8.53315	132234
8.53940	120561
8.54567	124839
8.55192	128249
8.55817	169220
8.56443	268818
8.57068	459480
8.57693	733738
8.58320	1184557
8.58945	1835156
8.59570	2189272
8.60197	2018699
8.60822	2109087
8.61447	4300226
8.62072	9954285
8.62698	1.697572E+07
8.63323	2.082567E+07
8.63948	1.670109E+07
8.64575	8134834
8.65200	2229486
8.65825	574880
8.66452	283975
8.67077	241191
8.67702	228033
8.68328	226887
8.68953	241472
8.69578	255384
8.70205	262921
8.70830	254291
8.71455	259621
8.72082	250439
8.72707	227208
8.73332	195675
8.73958	200663
8.74583	216190
8.75208	217220
8.75835	204031
8.76460	161411
8.77085	135099
8.77712	124914
8.78337	131718
8.78962	131412
8.79588	130439
8.80213	114493
8.80838	115691
8.81465	112089
8.82090	121303
8.82715	157639
8.83342	357498
8.83967	1023499
8.84592	2689096
8.85217	5439219
8.85843	7980467
8.86468	8797074
8.87093	7396903
8.87720	5561032
8.88345	4983569
8.88970	5625547
8.89597	6731340
8.90222	7092821
8.90847	5101272
8.91473	2025262
8.92098	787346
8.92723	393697
8.93350	254360
8.93975	201663
8.94600	184727
8.95227	195263
8.95852	232052
8.96477	279572
8.97103	335693
8.97728	351051
8.98353	375018
8.98980	414974
8.99605	534018
9.00230	755179
9.00857	959480
9.01482	1007293
9.02107	817197
9.02733	576755
9.03358	557455
9.03983	881827
9.04610	1361781
9.05235	1465117
9.05860	1038767
9.06485	563947
9.07112	316351
9.07737	225830
9.08362	201731
9.08988	204108
9.09613	222842
9.10238	234832
9.10865	217561
9.11490	193823
9.12115	166966
9.12742	160494
9.13367	170706
9.13992	195864
9.14618	219994
9.15243	236572
9.15868	286135
9.16495	339810
9.17120	367790
9.17745	367836
9.18372	382187
9.18997	461933
9.19622	510768
9.20248	460591
9.20873	323415
9.21498	216659
9.22125	165483
9.22750	153891
9.23375	164705
9.24002	214941
9.24627	285491
9.25252	312152
9.25878	279498
9.26503	206991
9.27128	152282
9.27755	130167
9.28380	133754
9.29005	164548
9.29630	239967
9.30257	357459
9.30882	452094
9.31507	519199
9.32133	567371
9.32758	575285
9.33383	543861
9.34010	635593
9.34635	960965
9.35260	1284263
9.35887	1270814
9.36512	924303
9.37137	590327
9.37763	901094
9.38388	3003719
9.39013	8434887
9.39640	1.520994E+07
9.40265	1.951109E+07
9.40890	1.779215E+07
9.41517	1.010504E+07
9.42142	3331071
9.42767	1150011
9.43393	1725531
9.44018	5549054
9.44643	1.419349E+07
9.45270	2.675567E+07
9.45895	3.584751E+07
9.46520	3.723954E+07
9.47147	2.951651E+07
9.47772	1.420903E+07
9.48397	3862202
9.49023	982142
9.49648	420028
9.50273	287938
9.50898	248937
9.51525	237203
9.52150	238822
9.52775	229936
9.53402	214922
9.54027	212935
9.54652	209089
9.55278	209783
9.55903	205889
9.56528	219755
9.57155	234299
9.57780	257963
9.58405	255399
9.59032	228546
9.59657	211932
9.60282	219494
9.60908	250076
9.61533	289038
9.62158	293964
9.62785	253185
9.63410	204926
9.64035	175802
9.64662	171797
9.65287	181585
9.65912	176106
9.66538	164232
9.67163	186916
9.67788	425102
9.68415	1608194
9.69040	5343502
9.69665	1.174673E+07
9.70292	1.726204E+07
9.70917	1.874505E+07
9.71542	1.309303E+07
9.72167	5798722
9.72793	3257889
9.73418	4633040
9.74043	6885153
9.74670	7053753
9.75295	4638080
9.75920	1960792
9.76547	699006
9.77172	326393
9.77797	235073
9.78423	206252
9.79048	182097
9.79673	159021
9.80300	153547
9.80925	143719
9.81550	144701
9.82177	145383
9.82802	154233
9.83427	156942
9.84053	192332
9.84678	259141
9.85303	517190
9.85930	1619381
9.86555	4989508
9.87180	1.129742E+07
9.87807	1.790164E+07
9.88432	1.95372E+07
9.89057	1.404108E+07
9.89683	6212764
9.90308	2468122
9.90933	2221972
9.91560	2391353
9.92185	1905200
9.92810	987970
9.93437	439367
9.94062	243584
9.94687	215604
9.95312	239630
9.95938	346502
9.96563	586171
9.97188	928806
9.97815	1200322
9.98440	1245866
9.99065	1134879
9.99692	929335
10.00317	695540
10.00942	482833
10.01568	349655
10.02193	287466
10.02818	252521
10.03445	221343
10.04070	199852
10.04695	194883
10.05322	194145
10.05947	181976
10.06572	159383
10.07198	152831
10.07823	149247
10.08448	159532
10.09075	184325
10.09700	216197
10.10325	234408
10.10952	261573
10.11577	295229
10.12202	311118
10.12828	264602
10.13453	211435
10.14078	171992
10.14705	153929
10.15330	154308
10.15955	148212
10.16580	148739
10.17207	153719
10.17832	166449
10.18457	185281
10.19083	190755
10.19708	185322
10.20333	168043
10.20960	168800
10.21585	238900
10.22210	451271
10.22837	785845
10.23462	1111984
10.24087	1228541
10.24713	1102419
10.25338	809829
10.25963	535022
10.26590	372446
10.27215	300372
10.27840	253355
10.28467	273627
10.29092	375256
10.29717	460970
10.30343	440850
10.30968	340238
10.31593	244891
10.32220	234608
10.32845	315670
10.33470	515455
10.34097	691236
10.34722	640165
10.35347	431588
10.35973	272276
10.36598	214697
10.37223	195870
10.37848	173928
10.38475	161692
10.39100	145879
10.39725	135483
10.40352	119752
10.40977	119093
10.41602	120419
10.42228	128666
10.42853	147671
10.43478	156936
10.44105	165244
10.44730	163673
10.45355	169734
10.45982	177528
10.46607	168513
10.47232	173363
10.47858	208517
10.48483	287752
10.49108	359621
10.49735	358807
10.50360	271545
10.50985	195677
10.51612	161399
10.52237	148082
10.52862	171706
10.53488	227380
10.54113	285288
10.54738	299848
10.55365	266174
10.55990	218347
10.56615	199984
10.57242	205348
10.57867	221378
10.58492	244559
10.59118	243749
10.59743	279412
10.60368	596278
10.60993	1954625
10.61620	5476132
10.62245	1.125232E+07
10.62870	1.550938E+07
10.63497	1.465317E+07
10.64122	9068152
10.64747	3578976
10.65373	974243
10.65998	329653
10.66623	217676
10.67250	212890
10.67875	229445
10.68500	231062
10.69127	210525
10.69752	173532
10.70377	153872
10.71003	146506
10.71628	151682
10.72253	166356
10.72880	188200
10.73505	189979
10.74130	196461
10.74757	197595
10.75382	185285
10.76007	186298
10.76633	187725
10.77258	197442
10.77883	205115
10.78510	200532
10.79135	189267
10.79760	191857
10.80387	205549
10.81012	272980
10.81637	403078
10.82262	518601
10.82888	491491
10.83513	358887
10.84138	241318
10.84765	189127
10.85390	172845
10.86015	185996
10.86642	193554
10.87267	204884
10.87892	201551
10.88518	195427
10.89143	192507
10.89768	204954
10.90395	227153
10.91020	234673
10.91645	222957
10.92272	212750
10.92897	212786
10.93522	211461
10.94148	195690
10.94773	174261
10.95398	166330
10.96025	237279
10.96650	614815
10.97275	2056828
10.97902	5815132
10.98527	1.273469E+07
10.99152	2.087499E+07
10.99778	2.524504E+07
11.00403	2.264671E+07
11.01028	1.275094E+07
11.01655	4044697
11.02280	924402
11.02905	324237
11.03530	276273
11.04157	300333
11.04782	325013
11.05407	351747
11.06033	387172
11.06658	400243
11.07283	340754
11.07910	259040
11.08535	199877
11.09160	184042
11.09787	206397
11.10412	226621
11.11037	229305
11.11663	217490
11.12288	216700
11.12913	226013
11.13540	238443
11.14165	246811
11.14790	253130
11.15417	296447
11.16042	418581
11.16667	626367
11.17293	767856
11.17918	697882
11.18543	491696
11.19170	298999
11.19795	214966
11.20420	211455
11.21047	237401
11.21672	279948
11.22297	309369
11.22923	292749
11.23548	265268
11.24173	248376
11.24800	253613
11.25425	290468
11.26050	300438
11.26675	278884
11.27302	270235
11.27927	292924
11.28552	316941
11.29178	303406
11.29803	260229
11.30428	220196
11.31055	206988
11.31680	263041
11.32305	425116
11.32932	646632
11.33557	774569
11.34182	681319
11.34808	449375
11.35433	256138
11.36058	178743
11.36685	165026
11.37310	169757
11.37935	174335
11.38562	163256
11.39187	156799
11.39812	156903
11.40438	167277
11.41063	167500
11.41688	169649
11.42315	166144
11.42940	177847
11.43565	232724
11.44192	394143
11.44817	668256
11.45442	900289
11.46068	939630
11.46693	706748
11.47318	423623
11.47943	299826
11.48570	279655
11.49195	253799
11.49820	232890
11.50447	202306
11.51072	190871
11.51697	176590
11.52323	168724
11.52948	169874
11.53573	171083
11.54200	171204
11.54825	175703
11.55450	171296
11.56077	159346
11.56702	150536
11.57327	144277
11.57953	149429
11.58578	150679
11.59203	159036
11.59830	167624
11.60455	169887
11.61080	165142
11.61707	164396
11.62332	169054
11.62957	166741
11.63583	164838
11.64208	172122
11.64833	192577
11.65460	217804
11.66085	232321
11.66710	229347
11.67337	212134
11.67962	185703
11.68587	175409
11.69213	175551
11.69838	205403
11.70463	278578
11.71088	413778
11.71715	613336
11.72340	721059
11.72965	645102
11.73592	457803
11.74217	316442
11.74842	232017
11.75468	192593
11.76093	193389
11.76718	214828
11.77345	246590
11.77970	268806
11.78595	281260
11.79222	282138
11.79847	288325
11.80472	285343
11.81098	268617
11.81723	250610
11.82348	252335
11.82975	315598
11.83600	488484
11.84225	689729
11.84852	775822
11.85477	636717
11.86102	436369
11.86728	302798
11.87353	245408
11.87978	252432
11.88605	309977
11.89230	415785
11.89855	505646
11.90482	502655
11.91107	418050
11.91732	328291
11.92358	276906
11.92983	254878
11.93608	289869
11.94233	466831
11.94860	1006798
11.95485	2259401
11.96110	4405145
11.96737	6700360
11.97362	7217653
11.97987	5092418
11.98613	2331437
11.99238	910460
11.99863	546586
12.00490	552204
12.01115	581214
12.01740	530744
12.02367	472279
12.02992	436318
12.03617	508554
12.04243	710543
12.04868	1040894
12.05493	1387082
12.06120	1478271
12.06745	1306350
12.07370	961501
12.07997	665308
12.08622	537262
12.09247	515336
12.09873	521140
12.10498	492465
12.11123	432863
12.11750	344361
12.12375	293339
12.13000	265111
12.13627	263870
12.14252	255616
12.14877	246195
12.15502	228556
12.16128	213835
12.16753	218606
12.17378	212512
12.18005	226519
12.18630	262430
12.19255	331660
12.19882	429367
12.20507	536742
12.21132	647850
12.21758	742468
12.22383	729082
12.23008	645728
12.23635	525726
12.24260	504257
12.24885	661933
12.25512	1051259
12.26137	1742544
12.26762	2733051
12.27388	3742544
12.28013	4169087
12.28638	3455248
12.29265	2081781
12.29890	949161
12.30515	434695
12.31142	265542
12.31767	214950
12.32392	198840
12.33018	200050
12.33643	219342
12.34268	256065
12.34895	295821
12.35520	329511
12.36145	341369
12.36770	329578
12.37397	324301
12.38022	337477
12.38647	408882
12.39273	486554
12.39898	496345
12.40523	410249
12.41150	331220
12.41775	285654
12.42400	274751
12.43027	301286
12.43652	334873
12.44277	369905
12.44903	360898
12.45528	320994
12.46153	294034
12.46780	301998
12.47405	385518
12.48030	624821
12.48657	1080899
12.49282	1697449
12.49907	2153905
12.50533	1850865
12.51158	1258721
12.51783	656593
12.52410	355053
12.53035	276060
12.53660	309038
12.54287	373574
12.54912	430611
12.55537	435376
12.56163	368078
12.56788	377584
12.57413	590195
12.58040	1122588
12.58665	2071718
12.59290	3015218
12.59915	3424725
12.60542	2981476
12.61167	2502087
12.61792	2772535
12.62418	3760632
12.63043	5317733
12.63668	7387996
12.64295	1.023445E+07
12.64920	1.424162E+07
12.65545	1.920353E+07
12.66172	2.560293E+07
12.66797	3.210258E+07
12.67422	3.624263E+07
12.68048	3.66801E+07
12.68673	3.306353E+07
12.69298	2.244893E+07
12.69925	7111433
12.70550	1581926
12.71175	789913
12.71802	912169
12.72427	1126204
12.73052	1186225
12.73678	1181535
12.74303	1247845
12.74928	1267914
12.75555	1136354
12.76180	885753
12.76805	660338
12.77432	534894
12.78057	477331
12.78682	494687
12.79308	527108
12.79933	538062
12.80558	485018
12.81183	402122
12.81810	348706
12.82435	339463
12.83060	352156
12.83687	366722
12.84312	345119
12.84937	303990
12.85563	284211
12.86188	276129
12.86813	278671
12.87440	277445
12.88065	300238
12.88690	402622
12.89317	589898
12.89942	825642
12.90567	918431
12.91193	830132
12.91818	709178
12.92443	548735
12.93070	418375
12.93695	308883
12.94320	236281
12.94947	222713
12.95572	216791
12.96197	207282
12.96823	199465
12.97448	191418
12.98073	188465
12.98700	205106
12.99325	221802
12.99950	244619
13.00577	268372
13.01202	293729
13.01827	341372
13.02452	435524
13.03078	616386
13.03703	783683
13.04328	864012
13.04955	717970
13.05580	496205
13.06205	385626
13.06832	527221
13.07457	1056068
13.08082	2123477
13.08708	3347810
13.09333	3835421
13.09958	3058114
13.10585	1863090
13.11210	965972
13.11835	573113
13.12462	415248
13.13087	332026
13.13712	301555
13.14338	301447
13.14963	284881
13.15588	273196
13.16215	259240
13.16840	237571
13.17465	222034
13.18092	201921
13.18717	194299
13.19342	185478
13.19968	179745
13.20593	180724
13.21218	183646
13.21845	193210
13.22470	209918
13.23095	237895
13.23722	272783
13.24347	291965
13.24972	281925
13.25597	279315
13.26223	294758
13.26848	302914
13.27473	298963
13.28100	295891
13.28725	323171
13.29350	432753
13.29977	674728
13.30602	1116130
13.31227	1519702
13.31853	1594249
13.32478	1270746
13.33103	683366
13.33730	366954
13.34355	267468
13.34980	267291
13.35607	272190
13.36232	271208
13.36857	254558
13.37483	239967
13.38108	221813
13.38733	207208
13.39360	193628
13.39985	190688
13.40610	184351
13.41237	198045
13.41862	204213
13.42487	236937
13.43113	273642
13.43738	320183
13.44363	346704
13.44990	334326
13.45615	295439
13.46240	258015
13.46865	225718
13.47492	214801
13.48117	219890
13.48742	219692
13.49368	219170
13.49993	226333
13.50618	227824
13.51245	237148
13.51870	245605
13.52495	269023
13.53122	285867
13.53747	312007
13.54372	390461
13.54998	569401
13.55623	823241
13.56248	971566
13.56875	872633
13.57500	621916
13.58125	464776
13.58752	473032
13.59377	671145
13.60002	1048695
13.60628	1501880
13.61253	1589067
13.61878	1261250
13.62505	823758
13.63130	534390
13.63755	403219
13.64382	349710
13.65007	337944
13.65632	351162
13.66258	353695
13.66883	332512
13.67508	324091
13.68133	338481
13.68760	399361
13.69385	495745
13.70010	525513
13.70637	478834
13.71262	393176
13.71887	316416
13.72513	283598
13.73138	282223
13.73763	279565
13.74390	294761
13.75015	342303
13.75640	485056
13.76267	799887
13.76892	1165474
13.77517	1253396
13.78143	971845
13.78768	615483
13.79393	466529
13.80020	642082
13.80645	1301546
13.81270	2654757
13.81897	4944564
13.82522	8300618
13.83147	1.311988E+07
13.83773	1.946787E+07
13.84398	2.369051E+07
13.85023	2.217881E+07
13.85650	1.213419E+07
13.86275	3415273
13.86900	728246
13.87527	312225
13.88152	332426
13.88777	564175
13.89403	1158207
13.90028	2382625
13.90653	4635468
13.91278	7632398
13.91905	9934735
13.92530	9689867
13.93155	6551356
13.93782	2705961
13.94407	817899
13.95032	280811
13.95658	190360
13.96283	181370
13.96908	179988
13.97535	174743
13.98160	178998
13.98785	180261
13.99412	189437
14.00037	209937
14.00662	233030
14.01288	263227
14.01913	285305
14.02538	271172
14.03165	216064
14.03790	167997
14.04415	148705
14.05042	146659
14.05667	155447
14.06292	182442
14.06918	207450
14.07543	230833
14.08168	238926
14.08795	204212
14.09420	174825
14.10045	152198
14.10672	141417
14.11297	134934
14.11922	144551
14.12547	152669
14.13173	157990
14.13798	149358
14.14423	143889
14.15050	142254
14.15675	143983
14.16300	147921
14.16927	143855
14.17552	134808
14.18177	130802
14.18803	127708
14.19428	133237
14.20053	140621
14.20680	159566
14.21305	201665
14.21930	282350
14.22557	372936
14.23182	437981
14.23807	442061
14.24433	409278
14.25058	334884
14.25683	312040
14.26310	421879
14.26935	758317
14.27560	1382557
14.28187	1835057
14.28812	1675039
14.29437	1018426
14.30063	509603
14.30688	288790
14.31313	244442
14.31940	301608
14.32565	392775
14.33190	458595
14.33817	441595
14.34442	364420
14.35067	270550
14.35692	215793
14.36318	185004
14.36943	183704
14.37568	189339
14.38195	192950
14.38820	217198
14.39445	266252
14.40072	409108
14.40697	781855
14.41322	1804315
14.41948	3676228
14.42573	5761644
14.43198	6405467
14.43825	5277100
14.44450	3595621
14.45075	2412271
14.45702	1758692
14.46327	1310229
14.46952	1091905
14.47578	1073863
14.48203	1111776
14.48828	1040650
14.49455	855611
14.50080	575403
14.50705	373676
14.51332	264155
14.51957	236756
14.52582	257837
14.53208	276120
14.53833	270722
14.54458	248342
14.55085	231685
14.55710	225047
14.56335	226289
14.56960	215658
14.57587	217678
14.58212	210717
14.58837	195984
14.59463	181658
14.60088	187512
14.60713	192704
14.61340	206450
14.61965	209297
14.62590	212520
14.63217	230974
14.63842	293230
14.64467	404581
14.65093	536899
14.65718	558934
14.66343	479638
14.66970	364413
14.67595	293757
14.68220	274580
14.68847	302942
14.69472	371856
14.70097	492009
14.70723	571396
14.71348	581599
14.71973	573789
14.72600	682588
14.73225	1047766
14.73850	1563663
14.74477	2057977
14.75102	2333247
14.75727	2602483
14.76353	2940998
14.76978	2854557
14.77603	2019546
14.78230	1052971
14.78855	466209
14.79480	320327
14.80105	376374
14.80732	599809
14.81357	813826
14.81982	838054
14.82608	646955
14.83233	402799
14.83858	241987
14.84485	185674
14.85110	202125
14.85735	262638
14.86362	365754
14.86987	458361
14.87612	460035
14.88238	377482
14.88863	289251
14.89488	234627
14.90115	232558
14.90740	300195
14.91365	465197
14.91992	715295
14.92617	880278
14.93242	895644
14.93868	750981
14.94493	610063
14.95118	498240
14.95745	583958
14.96370	960223
14.96995	1918582
14.97622	3719571
14.98247	5679403
14.98872	6300599
14.99498	4625480
15.00123	2341761
15.00748	890321
15.01373	390055
15.02000	269106
15.02625	240662
15.03250	236046
15.03877	261353
15.04502	300932
15.05127	333303
15.05753	334451
15.06378	334139
15.07003	313814
15.07630	284763
15.08255	274369
15.08880	290447
15.09507	319535
15.10132	369254
15.10757	413097
15.11383	445596
15.12008	511328
15.12633	626851
15.13260	755754
15.13885	869668
15.14510	985468
15.15137	1097840
15.15762	1300771
15.16387	2007203
15.17013	3449823
15.17638	5384285
15.18263	5734008
15.18890	4226085
15.19515	2173075
15.20140	957700
15.20767	484545
15.21392	321593
15.22017	249188
15.22643	205140
15.23268	189184
15.23893	194789
15.24518	207247
15.25145	223990
15.25770	244160
15.26395	247034
15.27022	235852
15.27647	212212
15.28272	191568
15.28898	176777
15.29523	177594
15.30148	182023
15.30775	194699
15.31400	207908
15.32025	252918
15.32652	304850
15.33277	326773
15.33902	293795
15.34528	249931
15.35153	226983
15.35778	239127
15.36405	280416
15.37030	295330
15.37655	270505
15.38282	227496
15.38907	197224
15.39532	180565
15.40158	169930
15.40783	161908
15.41408	165052
15.42035	192794
15.42660	280621
15.43285	409457
15.43912	532381
15.44537	704425
15.45162	895550
15.45787	1028947
15.46413	975646
15.47038	724811
15.47663	442364
15.48290	274007
15.48915	207757
15.49540	192747
15.50167	229429
15.50792	289414
15.51417	452716
15.52043	946588
15.52668	2089181
15.53293	3904756
15.53920	6004431
15.54545	7853177
15.55170	1.039756E+07
15.55797	1.430718E+07
15.56422	1.667816E+07
15.57047	1.411124E+07
15.57673	6502553
15.58298	1789188
15.58923	606960
15.59550	401174
15.60175	379640
15.60800	373487
15.61427	397332
15.62052	402919
15.62677	392582
15.63303	350017
15.63928	327215
15.64553	305682
15.65180	267620
15.65805	230780
15.66430	216210
15.67055	223337
15.67682	231404
15.68307	253888
15.68932	261128
15.69558	264330
15.70183	264975
15.70808	247634
15.71435	226844
15.72060	202886
15.72685	194459
15.73312	193314
15.73937	205366
15.74562	227199
15.75188	238722
15.75813	237794
15.76438	215604
15.77065	186720
15.77690	162537
15.78315	146590
15.78942	143060
15.79567	151232
15.80192	157583
15.80818	162508
15.81443	166074
15.82068	184044
15.82695	203061
15.83320	267174
15.83945	410232
15.84572	643121
15.85197	830673
15.85822	760879
15.86448	511227
15.87073	311059
15.87698	216664
15.88325	202333
15.88950	200827
15.89575	198938
15.90200	190829
15.90827	175078
15.91452	160156
15.92077	158447
15.92703	161451
15.93328	162756
15.93953	161548
15.94580	151280
15.95205	147499
15.95830	157425
15.96457	181788
15.97082	204298
15.97707	203378
15.98333	179660
15.98958	147044
15.99583	133382
16.00210	143358
16.00835	188196
16.01460	280429
16.02087	428811
16.02712	593744
16.03337	674196
16.03963	725315
16.04588	896091
16.05213	1160768
16.05840	1267650
16.06465	1070811
16.07090	780948
16.07717	598936
16.08342	688342
16.08967	891530
16.09593	981636
16.10218	976116
16.10843	1019633
16.11468	1437604
16.12095	2402667
16.12720	3387759
16.13345	3849939
16.13972	3055477
16.14597	1741068
16.15222	770463
16.15848	388374
16.16473	281157
16.17098	266596
16.17725	264081
16.18350	260328
16.18975	292469
16.19602	354435
16.20227	396803
16.20852	370218
16.21478	289775
16.22103	271894
16.22728	379625
16.23355	623978
16.23980	936826
16.24605	991603
16.25232	738376
16.25857	442511
16.26482	290445
16.27108	221167
16.27733	192367
16.28358	185423
16.28985	187117
16.29610	222300
16.30235	319407
16.30862	484493
16.31487	542250
16.32112	481750
16.32737	340854
16.33363	241499
16.33988	196040
16.34613	185662
16.35240	184030
16.35865	188221
16.36490	181576
16.37117	179490
16.37742	172210
16.38367	164647
16.38993	155977
16.39618	158952
16.40243	162017
16.40870	168114
16.41495	168706
16.42120	170844
16.42747	188764
16.43372	256636
16.43997	427473
16.44623	718267
16.45248	945612
16.45873	944378
16.46500	771532
16.47125	610292
16.47750	499757
16.48377	411094
16.49002	327753
16.49627	278709
16.50253	264465
16.50878	280932
16.51503	339196
16.52130	421637
16.52755	495535
16.53380	510728
16.54007	489301
16.54632	428795
16.55257	389267
16.55882	343919
16.56508	308327
16.57133	285137
16.57758	269828
16.58385	268498
16.59010	275504
16.59635	277877
16.60262	278774
16.60887	269947
16.61512	277355
16.62138	286982
16.62763	304502
16.63388	321385
16.64015	345593
16.64640	386403
16.65265	421144
16.65892	420136
16.66517	370505
16.67142	317520
16.67768	296059
16.68393	307710
16.69018	324413
16.69645	326947
16.70270	302455
16.70895	263948
16.71522	241883
16.72147	227572
16.72772	230870
16.73398	246669
16.74023	247751
16.74648	258156
16.75275	291863
16.75900	377036
16.76525	571859
16.77150	1024696
16.77777	1740334
16.78402	2404742
16.79027	2606036
16.79653	2519019
16.80278	2499349
16.80903	3067873
16.81530	3762493
16.82155	4729886
16.82780	6237150
16.83407	8747510
16.84032	1.197719E+07
16.84657	1.342013E+07
16.85283	1.223858E+07
16.85908	8901780
16.86533	5293947
16.87160	3356040
16.87785	2837642
16.88410	3011407
16.89037	3277809
16.89662	3260727
16.90287	3100079
16.90913	2595038
16.91538	2200446
16.92163	2141125
16.92790	2506560
16.93415	3027950
16.94040	3527198
16.94667	3609611
16.95292	3590572
16.95917	3605629
16.96543	3538698
16.97168	3016075
16.97793	2129598
16.98418	1402283
16.99045	997381
16.99670	860087
17.00295	939454
17.00922	1504724
17.01547	2989470
17.02172	5895226
17.02798	1.031364E+07
17.03423	1.552595E+07
17.04048	2.131757E+07
17.04675	2.812707E+07
17.05300	3.673853E+07
17.05925	4.465987E+07
17.06552	4.962847E+07
17.07177	5.079804E+07
17.07802	4.931569E+07
17.08428	4.597439E+07
17.09053	4.340757E+07
17.09678	4.132753E+07
17.10305	4.086042E+07
17.10930	4.337412E+07
17.11555	3.750558E+07
17.12182	1.161567E+07
17.12807	1.087477E+07
17.13432	1.017205E+07
17.14058	8537688
17.14683	7205598
17.15308	8479251
17.15935	1.380246E+07
17.16560	2.331983E+07
17.17185	3.405892E+07
17.17812	4.24386E+07
17.18437	4.654107E+07
17.19062	4.348538E+07
17.19688	2.611237E+07
17.20313	6982540
17.20938	2799703
17.21563	3005245
17.22190	3685850
17.22815	4570455
17.23440	6784380
17.24067	1.214627E+07
17.24692	2.128014E+07
17.25317	3.282802E+07
17.25943	4.168388E+07
17.26568	4.591466E+07
17.27193	4.018363E+07
17.27820	2.310193E+07
17.28445	9075331
17.29070	7875271
17.29697	1.184399E+07
17.30322	1.573189E+07
17.30947	1.708134E+07
17.31573	1.211282E+07
17.32198	6824486
17.32823	2944683
17.33450	1491289
17.34075	1067383
17.34700	923019
17.35327	786407
17.35952	727010
17.36577	676248
17.37203	643966
17.37828	633347
17.38453	646793
17.39080	672930
17.39705	713925
17.40330	851679
17.40957	1009766
17.41582	1158076
17.42207	1203851
17.42832	1138951
17.43458	1095627
17.44083	1388090
17.44708	2246817
17.45335	3634491
17.45960	5185531
17.46585	5163744
17.47212	3922083
17.47837	2285557
17.48462	1200837
17.49088	760551
17.49713	671424
17.50338	676179
17.50965	765670
17.51590	933468
17.52215	1059245
17.52842	1036392
17.53467	832142
17.54092	652380
17.54718	574662
17.55343	636378
17.55968	881831
17.56595	1626387
17.57220	3543215
17.57845	6913613
17.58472	1.028221E+07
17.59097	1.033584E+07
17.59722	7514007
17.60348	3661661
17.60973	1559509
17.61598	961674
17.62225	1005489
17.62850	1131295
17.63475	1112649
17.64102	882863
17.64727	669944
17.65352	548862
17.65977	494470
17.66603	449997
17.67228	434304
17.67853	428146
17.68480	450829
17.69105	479601
17.69730	498789
17.70357	534735
17.70982	552720
17.71607	523466
17.72233	465827
17.72858	417242
17.73483	403464
17.74110	424581
17.74735	459904
17.75360	489985
17.75987	521804
17.76612	577350
17.77237	701726
17.77863	932403
17.78488	1212729
17.79113	1642139
17.79740	2531660
17.80365	3985898
17.80990	5890563
17.81617	7986260
17.82242	7697521
17.82867	5963873
17.83493	3613792
17.84118	2152645
17.84743	1387163
17.85370	1029021
17.85995	1210578
17.86620	2695524
17.87245	6075676
17.87872	1.012794E+07
17.88497	1.271462E+07
17.89122	1.074427E+07
17.89748	6036292
17.90373	2466122
17.90998	979057
17.91625	593072
17.92250	503985
17.92875	472799
17.93502	456915
17.94127	440865
17.94752	428668
17.95378	425013
17.96003	440681
17.96628	460138
17.97255	460294
17.97880	472916
17.98505	493926
17.99132	538596
17.99757	620125
18.00382	770969
18.01008	979895
18.01633	1120835
18.02258	1030220
18.02885	816972
18.03510	632789
18.04135	528041
18.04762	467982
18.05387	421996
18.06012	392725
18.06638	356801
18.07263	336562
18.07888	339511
18.08515	361979
18.09140	418846
18.09765	482739
18.10390	519846
18.11017	512547
18.11642	502529
18.12267	593556
18.12893	932212
18.13518	1756843
18.14143	3017006
18.14770	4221493
18.15395	4028967
18.16020	2837347
18.16647	1440523
18.17272	733562
18.17897	468959
18.18523	394845
18.19148	364099
18.19773	339953
18.20400	343451
18.21025	376497
18.21650	443023
18.22277	504901
18.22902	509065
18.23527	437735
18.24153	372017
18.24778	336691
18.25403	324006
18.26030	331624
18.26655	365769
18.27280	427313
18.27907	492706
18.28532	598503
18.29157	774862
18.29783	1190194
18.30408	1738397
18.31033	2127856
18.31658	2087794
18.32285	1766703
18.32910	1256539
18.33535	803782
18.34162	474934
18.34787	332276
18.35412	298267
18.36038	307817
18.36663	321812
18.37288	327144
18.37915	344712
18.38540	394089
18.39165	456935
18.39792	496212
18.40417	477652
18.41042	467025
18.41668	475196
18.42293	466872
18.42918	426749
18.43545	360966
18.44170	315225
18.44795	283788
18.45422	266053
18.46047	252187
18.46672	243304
18.47298	243736
18.47923	235335
18.48548	228721
18.49175	226824
18.49800	219268
18.50425	219191
18.51052	221300
18.51677	227660
18.52302	229074
18.52928	229998
18.53553	236088
18.54178	240321
18.54803	256679
18.55430	267550
18.56055	274586
18.56680	267480
18.57307	256042
18.57932	245857
18.58557	239210
18.59183	252766
18.59808	290229
18.60433	388145
18.61060	550750
18.61685	698301
18.62310	739783
18.62937	605540
18.63562	458119
18.64187	386384
18.64813	372696
18.65438	370838
18.66063	334505
18.66690	293326
18.67315	278031
18.67940	273907
18.68567	253851
18.69192	242332
18.69817	245031
18.70443	269295
18.71068	303016
18.71693	357795
18.72320	374566
18.72945	350038
18.73570	304445
18.74197	262038
18.74822	248480
18.75447	251127
18.76072	263225
18.76698	257235
18.77323	245977
18.77948	225899
18.78575	214774
18.79200	209918
18.79825	202167
18.80452	202739
18.81077	216598
18.81702	221492
18.82328	219584
18.82953	227183
18.83578	225628
18.84205	224444
18.84830	222213
18.85455	245404
18.86082	359324
18.86707	626192
18.87332	1347790
18.87958	3312228
18.88583	7938485
18.89208	1.646991E+07
18.89835	3.020548E+07
18.90460	4.282301E+07
18.91085	4.993592E+07
18.91712	5.154762E+07
18.92337	4.239817E+07
18.92962	1.958809E+07
18.93588	4757289
18.94213	1099744
18.94838	506690
18.95465	389305
18.96090	331402
18.96715	278671
18.97340	253345
18.97967	231647
18.98592	224199
18.99217	224589
18.99843	226482
19.00468	238036
19.01093	251936
19.01720	268958
19.02345	256028
19.02970	246833
19.03597	232910
19.04222	239858
19.04847	263315
19.05473	272210
19.06098	275581
19.06723	251519
19.07350	255715
19.07975	277609
19.08600	308939
19.09227	352248
19.09852	366236
19.10477	357701
19.11103	341657
19.11728	298523
19.12353	278853
19.12980	275807
19.13605	283734
19.14230	285798
19.14857	277456
19.15482	265152
19.16107	238399
19.16733	225663
19.17358	212154
19.17983	206037
19.18610	210352
19.19235	218829
19.19860	230021
19.20485	231087
19.21112	223662
19.21737	218108
19.22362	209348
19.22988	194757
19.23613	183708
19.24238	180752
19.24865	182931
19.25490	176846
19.26115	172752
19.26742	170513
19.27367	170648
19.27992	174889
19.28618	181715
19.29243	189088
19.29868	192611
19.30495	184759
19.31120	182762
19.31745	173093
19.32372	167431
19.32997	171833
19.33622	180534
19.34248	207012
19.34873	242046
19.35498	262915
19.36125	263454
19.36750	245859
19.37375	231039
19.38002	221741
19.38627	220570
19.39252	227791
19.39878	248225
19.40503	269143
19.41128	272712
19.41753	263221
19.42380	238546
19.43005	217233
19.43630	211126
19.44257	209321
19.44882	221073
19.45507	233390
19.46133	228493
19.46758	207448
19.47383	196698
19.48010	186515
19.48635	195142
19.49260	199503
19.49887	216684
19.50512	228317
19.51137	235137
19.51763	238053
19.52388	237234
19.53013	240524
19.53640	233517
19.54265	267756
19.54890	322613
19.55517	379104
19.56142	379183
19.56767	334515
19.57393	274407
19.58018	224025
19.58643	200566
19.59270	193162
19.59895	191704
19.60520	194829
19.61147	194926
19.61772	190721
19.62397	197089
19.63022	220580
19.63648	258145
19.64273	281820
19.64898	274325
19.65525	254430
19.66150	240918
19.66775	261534
19.67402	326683
19.68027	382662
19.68652	413978
19.69278	381717
19.69903	320748
19.70528	284665
19.71155	281697
19.71780	293070
19.72405	275462
19.73032	272730
19.73657	286250
19.74282	287250
19.74908	280126
19.75533	261147
19.76158	253082
19.76785	271318
19.77410	284379
19.78035	296346
19.78662	286651
19.79287	291647
19.79912	328700
19.80538	358566
19.81163	370619
19.81788	314010
19.82415	257074
19.83040	213206
19.83665	189649
19.84292	179842
19.84917	191188
19.85542	220052
19.86167	258559
19.86793	309411
19.87418	325236
19.88043	301918
19.88670	262889
19.89295	231023
19.89920	255615
19.90547	432885
19.91172	1053099
19.91797	2432854
19.92423	4357538
19.93048	5967514
19.93673	5212891
19.94300	3112326
19.94925	1397630
19.95550	583789
19.96177	386636
19.96802	440009
19.97427	609409
19.98053	769551
19.98678	846414
19.99303	740029
19.99930	594130
20.00555	441006
20.01180	324528
20.01807	269141
20.02432	247860
20.03057	232262
20.03683	231897
20.04308	264300
20.04933	288671
20.05560	302242
20.06185	292713
20.06810	257930
20.07435	223106
20.08062	208764
20.08687	218674
20.09312	241098
20.09938	261045
20.10563	267425
20.11188	248749
20.11815	216894
20.12440	201432
20.13065	198827
20.13692	203596
20.14317	209244
20.14942	208509
20.15568	204762
20.16193	201731
20.16818	203367
20.17445	197103
20.18070	199116
20.18695	201963
20.19322	217934
20.19947	238255
20.20572	249994
20.21198	290857
20.21823	325275
20.22448	368585
20.23075	386883
20.23700	384716
20.24325	353821
20.24952	301021
20.25577	267514
20.26202	245639
20.26828	234691
20.27453	233074
20.28078	237183
20.28705	309004
20.29330	507867
20.29955	938230
20.30580	1364357
20.31207	1559335
20.31832	1367104
20.32457	932540
20.33083	538944
20.33708	345072
20.34333	311394
20.34960	318838
20.35585	316349
20.36210	300790
20.36837	269513
20.37462	245002
20.38087	232817
20.38713	237116
20.39338	245178
20.39963	249277
20.40590	268956
20.41215	286674
20.41840	355915
20.42467	494692
20.43092	877660
20.43717	1549283
20.44343	2300702
20.44968	2649274
20.45593	2197257
20.46220	1360524
20.46845	783185
20.47470	623381
20.48097	721549
20.48722	929689
20.49347	1007823
20.49973	836228
20.50598	607379
20.51223	438428
20.51848	359340
20.52475	354281
20.53100	351786
20.53725	356961
20.54352	418849
20.54977	533043
20.55602	678653
20.56228	713822
20.56853	610702
20.57478	482699
20.58105	381263
20.58730	368414
20.59355	405830
20.59982	442467
20.60607	418165
20.61232	381427
20.61858	333237
20.62483	278697
20.63108	243462
20.63735	225998
20.64360	230070
20.64985	253026
20.65612	281061
20.66237	309738
20.66862	297411
20.67488	289686
20.68113	270144
20.68738	254639
20.69365	239993
20.69990	245850
20.70615	314904
20.71242	517047
20.71867	930339
20.72492	1494691
20.73117	1672130
20.73743	1426650
20.74368	965895
20.74993	640796
20.75620	550568
20.76245	717710
20.76870	1024001
20.77497	1252463
20.78122	1260092
20.78747	994725
20.79373	714446
20.79998	504081
20.80623	385781
20.81250	319080
20.81875	275694
20.82500	260763
20.83127	276027
20.83752	304685
20.84377	334313
20.85003	348153
20.85628	334651
20.86253	324278
20.86880	311240
20.87505	290266
20.88130	275806
20.88757	270983
20.89382	282100
20.90007	297700
20.90633	320612
20.91258	344808
20.91883	362857
20.92510	388153
20.93135	455514
20.93760	705932
20.94387	1161615
20.95012	1591047
20.95637	1697520
20.96262	1423760
20.96888	1047421
20.97513	750941
20.98138	614457
20.98765	482032
20.99390	397319
21.00015	414361
21.00642	563105
21.01267	817274
21.01892	955086
21.02518	920941
21.03143	724842
21.03768	520882
21.04395	429318
21.05020	412659
21.05645	385651
21.06272	369632
21.06897	362620
21.07522	371804
21.08148	412899
21.08773	421381
21.09398	381359
21.10025	323916
21.10650	272192
21.11275	250541
21.11902	251790
21.12527	250862
21.13152	256154
21.13778	247147
21.14403	242804
21.15028	244860
21.15655	243440
21.16280	258048
21.16905	264378
21.17530	270743
21.18157	284857
21.18782	273053
21.19407	261013
21.20033	261408
21.20658	262323
21.21283	265386
21.21910	269308
21.22535	258061
21.23160	267996
21.23787	287840
21.24412	337742
21.25037	366118
21.25663	374463
21.26288	328925
21.26913	309042
21.27540	343858
21.28165	401459
21.28790	460022
21.29417	452537
21.30042	409768
21.30667	325065
21.31293	278884
21.31918	266382
21.32543	283166
21.33170	287625
21.33795	288371
21.34420	269674
21.35047	259673
21.35672	271436
21.36297	340016
21.36923	429058
21.37548	491280
21.38173	467727
21.38800	404096
21.39425	321177
21.40050	265608
21.40675	254574
21.41302	256851
21.41927	280657
21.42552	302013
21.43178	307215
21.43803	306696
21.44428	298899
21.45055	340830
21.45680	436330
21.46305	603685
21.46932	695635
21.47557	682110
21.48182	575285
21.48808	465627
21.49433	430453
21.50058	468393
21.50685	481552
21.51310	433499
21.51935	365300
21.52562	286248
21.53187	250810
21.53812	234358
21.54438	233132
21.55063	227436
21.55688	220667
21.56315	225150
21.56940	250351
21.57565	273679
21.58192	274605
21.58817	277772
21.59442	296847
21.60068	302863
21.60693	301031
21.61318	278248
21.61943	235617
21.62570	208785
21.63195	185308
21.63820	180625
21.64447	166805
21.65072	166572
21.65697	163465
21.66323	168043
21.66948	179881
21.67573	202886
21.68200	220838
21.68825	234514
21.69450	230175
21.70077	210662
21.70702	191116
21.71327	175053
21.71953	169371
21.72578	168745
21.73203	174368
21.73830	175457
21.74455	183475
21.75080	197804
21.75707	208519
21.76332	223199
21.76957	218271
21.77583	213566
21.78208	239410
21.78833	285579
21.79460	316110
21.80085	343491
21.80710	351643
21.81337	338966
21.81962	312670
21.82587	295713
21.83213	270954
21.83838	265985
21.84463	276836
21.85088	302057
21.85715	340685
21.86340	379627
21.86965	406631
21.87592	395362
21.88217	345588
21.88842	281836
21.89468	259022
21.90093	304008
21.90718	428598
21.91345	548034
21.91970	568413
21.92595	525163
21.93222	439611
21.93847	418206
21.94472	388431
21.95098	350052
21.95723	282641
21.96348	229262
21.96975	206734
21.97600	217399
21.98225	238469
21.98852	268832
21.99477	275809
22.00102	274209
22.00728	259082
22.01353	247575
22.01978	234657
22.02605	232196
22.03230	254550
22.03855	304887
22.04482	360701
22.05107	426476
22.05732	467933
22.06357	495290
22.06983	531414
22.07608	610112
22.08233	616571
22.08860	572219
22.09485	459821
22.10110	359842
22.10737	313431
22.11362	313557
22.11987	321502
22.12613	347477
22.13238	358104
22.13863	336410
22.14490	297256
22.15115	260973
22.15740	243986
22.16367	255016
22.16992	260804
22.17617	275092
22.18243	283351
22.18868	284314
22.19493	286778
22.20120	277598
22.20745	255871
22.21370	232675
22.21997	225597
22.22622	216323
22.23247	232798
22.23873	253289
22.24498	302903
22.25123	414231
22.25750	545310
22.26375	647276
22.27000	650379
22.27625	603639
22.28252	549264
22.28877	501894
22.29502	480701
22.30128	455563
22.30753	397148
22.31378	337068
22.32005	306211
22.32630	293923
22.33255	287207
22.33882	290298
22.34507	323315
22.35132	514137
22.35758	1009769
22.36383	1890682
22.37008	2612945
22.37635	2635596
22.38260	2031544
22.38885	1157114
22.39512	568823
22.40137	346854
22.40762	294401
22.41388	291805
22.42013	306633
22.42638	328916
22.43265	367880
22.43890	427780
22.44515	515523
22.45142	633997
22.45767	829309
22.46392	1006554
22.47018	1000328
22.47643	810629
22.48268	611445
22.48895	454597
22.49520	386359
22.50145	353951
22.50770	333881
22.51397	315917
22.52022	303863
22.52647	293751
22.53273	332535
22.53898	419070
22.54523	551177
22.55150	718906
22.55775	809435
22.56400	744235
22.57027	629576
22.57652	504074
22.58277	405479
22.58903	361762
22.59528	339227
22.60153	321642
22.60780	300355
22.61405	299706
22.62030	310930
22.62657	305257
22.63282	288703
22.63907	281644
22.64533	284549
22.65158	277646
22.65783	273616
22.66410	271981
22.67035	294149
22.67660	335693
22.68287	356795
22.68912	383127
22.69537	367934
22.70163	332228
22.70788	288400
22.71413	259507
22.72038	251828
22.72665	248016
22.73290	256473
22.73915	257988
22.74542	269045
22.75167	282043
22.75792	284548
22.76418	299907
22.77043	303823
22.77668	361743
22.78295	533233
22.78920	1412074
22.79545	3513120
22.80172	7987866
22.80797	1.41156E+07
22.81422	1.924047E+07
22.82048	1.909644E+07
22.82673	1.361783E+07
22.83298	5680818
22.83925	2020470
22.84550	888397
22.85175	553716
22.85802	454056
22.86427	415273
22.87052	380281
22.87678	364598
22.88303	336841
22.88928	319618
22.89555	310057
22.90180	305465
22.90805	304223
22.91432	312344
22.92057	318947
22.92682	318445
22.93307	335706
22.93933	345854
22.94558	353123
22.95183	349435
22.95810	332138
22.96435	324689
22.97060	357050
22.97687	407713
22.98312	492942
22.98937	522156
22.99563	491264
23.00188	420560
23.00813	351497
23.01440	301272
23.02065	275891
23.02690	265237
23.03317	256782
23.03942	269900
23.04567	274369
23.05193	272592
23.05818	301463
23.06443	402262
23.07070	602136
23.07695	850223
23.08320	1035327
23.08947	992901
23.09572	759121
23.10197	504231
23.10823	348261
23.11448	288473
23.12073	254584
23.12700	244410
23.13325	236961
23.13950	229655
23.14575	228511
23.15202	222971
23.15827	219117
23.16452	216041
23.17078	217798
23.17703	216900
23.18328	218117
23.18955	229354
23.19580	235718
23.20205	236619
23.20832	239027
23.21457	237453
23.22082	222482
23.22708	221326
23.23333	220758
23.23958	224128
23.24585	227521
23.25210	238410
23.25835	242932
23.26462	237324
23.27087	235167
23.27712	229412
23.28338	216779
23.28963	224306
23.29588	246852
23.30215	304359
23.30840	425509
23.31465	584021
23.32092	689721
23.32717	664560
23.33342	533175
23.33968	389719
23.34593	302698
23.35218	272016
23.35845	251684
23.36470	244022
23.37095	235579
23.37720	232112
23.38347	236917
23.38972	240561
23.39597	244342
23.40223	248361
23.40848	244627
23.41473	241195
23.42100	240701
23.42725	236539
23.43350	244403
23.43977	259188
23.44602	314907
23.45227	366324
23.45853	430771
23.46478	460641
23.47103	467445
23.47730	507956
23.48355	568768
23.48980	639127
23.49607	648572
23.50232	659010
23.50857	693593
23.51483	806693
23.52108	903682
23.52733	927237
23.53360	778519
23.53985	565905
23.54610	408372
23.55237	344132
23.55862	348195
23.56487	386820
23.57113	467969
23.57738	589067
23.58363	674829
23.58988	684533
23.59615	646314
23.60240	517088
23.60865	422604
23.61492	359896
23.62117	319620
23.62742	309021
23.63368	323577
23.63993	359381
23.64618	393112
23.65245	392426
23.65870	355469
23.66495	309381
23.67122	277546
23.67747	264319
23.68372	276424
23.68998	288142
23.69623	294845
23.70248	308542
23.70875	321883
23.71500	372702
23.72125	524301
23.72752	714669
23.73377	874875
23.74002	893687
23.74628	719933
23.75253	530431
23.75878	380392
23.76505	308323
23.77130	288387
23.77755	282235
23.78382	288744
23.79007	286003
23.79632	288587
23.80258	305607
23.80883	326000
23.81508	366119
23.82133	393857
23.82760	420168
23.83385	398292
23.84010	363321
23.84637	319785
23.85262	306356
23.85887	296352
23.86513	298474
23.87138	308369
23.87763	338644
23.88390	398654
23.89015	482625
23.89640	555784
23.90267	555562
23.90892	499997
23.91517	421253
23.92143	369365
23.92768	348142
23.93393	330565
23.94020	339197
23.94645	357860
23.95270	480667
23.95897	876297
23.96522	1895346
23.97147	3710760
23.97773	6663654
23.98398	1.0613E+07
23.99023	1.591069E+07
23.99650	2.398352E+07
24.00275	2.94961E+07
24.00900	2.970732E+07
24.01527	2.330927E+07
24.02152	1.319189E+07
24.02777	5663548
24.03402	2488587
24.04028	1405565
24.04653	1004227
24.05278	809396
24.05905	693065
24.06530	639982
24.07155	638359
24.07782	642054
24.08407	659184
24.09032	665602
24.09658	830756
24.10283	1376454
24.10908	2705210
24.11535	4662237
24.12160	6343649
24.12785	6648440
24.13412	5226661
24.14037	3424023
24.14662	1815435
24.15288	1009444
24.15913	684960
24.16538	564597
24.17165	549156
24.17790	584079
24.18415	723161
24.19042	962371
24.19667	1393341
24.20292	2258271
24.20918	4310923
24.21543	8641282
24.22168	1.545421E+07
24.22795	2.402794E+07
24.23420	3.113161E+07
24.24045	3.671057E+07
24.24672	4.15188E+07
24.25297	4.300592E+07
24.25922	4.421363E+07
24.26547	4.348821E+07
24.27173	4.306664E+07
24.27798	4.278927E+07
24.28423	2.626658E+07
24.29050	5387945
24.29675	2755861
24.30300	2193138
24.30927	1928172
24.31552	1738516
24.32177	1584424
24.32803	1560540
24.33428	1565972
24.34053	1610718
24.34680	1613852
24.35305	1647115
24.35930	1674262
24.36557	1718126
24.37182	1808640
24.37807	1841680
24.38433	1858011
24.39058	1769581
24.39683	1649994
24.40310	1519154
24.40935	1396105
24.41560	1327581
24.42187	1313975
24.42812	1378904
24.43437	1587420
24.44063	1932227
24.44688	2256828
24.45313	2211463
24.45940	1936155
24.46565	1508206
24.47190	1186284
24.47815	1002608
24.48442	881139
24.49067	835220
24.49692	807654
24.50318	783187
24.50943	768537
24.51568	742390
24.52195	721804
24.52820	708631
24.53445	671006
24.54072	662834
24.54697	654249
24.55322	624592
24.55948	624112
24.56573	599777
24.57198	566071
24.57825	572061
24.58450	577792
24.59075	578124
24.59702	579253
24.60327	539084
24.60952	506195
24.61578	467440
24.62203	443519
24.62828	423985
24.63455	414614
24.64080	401989
24.64705	393397
24.65332	375810
24.65957	372973
24.66582	362438
24.67208	366019
24.67833	379516
24.68458	395158
24.69085	416380
24.69710	434109
24.70335	430264
24.70960	431550
24.71587	424738
24.72212	435058
24.72837	399373
24.73463	369437
24.74088	335941
24.74713	315914
24.75340	313396
24.75965	312743
24.76590	323984
24.77217	347729
24.77842	371344
24.78467	367027
24.79093	357773
24.79718	326925
24.80343	301099
24.80970	270710
24.81595	255573
24.82220	256185
24.82847	250546
24.83472	241976
24.84097	232307
24.84723	225138
24.85348	225813
24.85973	223655
24.86600	225043
24.87225	236670
24.87850	260567
24.88477	292385
24.89102	327648
24.89727	361391
24.90353	373815
24.90978	347136
24.91603	336046
24.92228	350082
24.92855	373027
24.93480	395290
24.94105	388885
24.94732	417488
24.95357	497959
24.95982	549352
24.96608	559140
24.97233	473297
24.97858	376784
24.98485	306748
24.99110	274919
24.99735	251368
25.00362	244918
25.00987	237478
25.01612	237479
25.02238	231955
25.02863	248784
25.03488	258909
25.04115	264162
25.04740	260962
25.05365	249591
25.05992	241840
25.06617	231158
25.07242	225284
25.07868	229566
25.08493	231744
25.09118	226343
25.09745	239135
25.10370	240399
25.10995	242167
25.11622	238827
25.12247	235128
25.12872	227103
25.13497	227900
25.14123	222350
25.14748	215997
25.15373	206562
25.16000	200411
25.16625	203514
25.17250	210587
25.17877	258838
25.18502	334131
25.19127	407770
25.19753	432843
25.20378	400537
25.21003	331206
25.21630	262362
25.22255	219151
25.22880	201431
25.23507	194562
25.24132	191410
25.24757	192145
25.25383	190563
25.26008	193301
25.26633	193617
25.27260	193777
25.27885	218584
25.28510	265561
25.29137	375296
25.29762	489598
25.30387	545910
25.31013	490644
25.31638	397477
25.32263	300248
25.32890	252121
25.33515	225152
25.34140	213875
25.34767	206024
25.35392	206447
25.36017	202444
25.36642	209720
25.37268	210117
25.37893	213600
25.38518	218181
25.39145	217350
25.39770	222750
25.40395	244949
25.41022	265618
25.41647	282534
25.42272	276053
25.42898	273932
25.43523	258474
25.44148	258814
25.44775	261627
25.45400	256725
25.46025	249092
25.46652	239084
25.47277	228256
25.47902	236483
25.48528	247203
25.49153	300433
25.49778	394921
25.50405	517156
25.51030	565922
25.51655	547369
25.52282	471042
25.52907	416634
25.53532	438596
25.54158	539802
25.54783	641514
25.55408	655634
25.56035	546473
25.56660	394080
25.57285	301336
25.57910	250170
25.58537	223722
25.59162	215844
25.59787	215519
25.60413	224512
25.61038	230126
25.61663	233230
25.62290	229124
25.62915	223093
25.63540	210327
25.64167	206601
25.64792	196193
25.65417	191648
25.66043	186795
25.66668	180606
25.67293	186158
25.67920	181806
25.68545	185834
25.69170	186939
25.69797	191726
25.70422	184006
25.71047	177895
25.71673	176857
25.72298	175733
25.72923	176476
25.73550	174714
25.74175	177192
25.74800	181335
25.75427	189125
25.76052	184357
25.76677	186349
25.77303	177103
25.77928	179700
25.78553	176443
25.79178	176990
25.79805	170547
25.80430	163624
25.81055	159378
25.81682	157236
25.82307	155888
25.82932	157052
25.83558	154721
25.84183	158179
25.84808	157092
25.85435	158260
25.86060	161124
25.86685	164714
25.87312	161025
25.87937	156432
25.88562	160222
25.89188	157365
25.89813	152610
25.90438	152392
25.91065	155708
25.91690	154564
25.92315	156576
25.92942	158850
25.93567	165360
25.94192	168997
25.94818	168056
25.95443	168325
25.96068	160239
25.96695	164129
25.97320	159318
25.97945	171977
25.98572	181841
25.99197	180609
25.99822	175765
26.00448	165118
26.01073	162382
26.01698	157804
26.02323	156590
26.02950	160518
26.03575	167003
26.04200	164800
26.04827	166541
26.05452	168389
26.06077	168007
26.06703	172622
26.07328	169181
26.07953	164631
26.08580	160755
26.09205	154603
26.09830	150509
26.10457	150557
26.11082	155559
26.11707	147978
26.12333	149867
26.12958	150797
26.13583	147813
26.14210	143314
26.14835	148602
26.15460	145221
26.16087	144879
26.16712	149840
26.17337	151603
26.17963	150499
26.18588	150847
26.19213	150725
26.19840	149468
26.20465	148607
26.21090	149294
26.21717	149463
26.22342	148837
26.22967	148121
26.23592	148422
26.24218	146577
26.24843	146089
26.25468	144928
26.26095	147800
26.26720	145865
26.27345	142309
26.27972	149340
26.28597	148546
26.29222	145915
26.29848	152317
26.30473	147755
26.31098	150984
26.31725	152048
26.32350	156117
26.32975	149382
26.33602	152105
26.34227	147057
26.34852	149158
26.35478	158555
26.36103	168828
26.36728	206126
26.37355	275704
26.37980	383182
26.38605	470374
26.39232	488817
26.39857	421327
26.40482	308673
26.41108	227208
26.41733	194171
26.42358	177718
26.42985	172856
26.43610	168277
26.44235	160625
26.44860	160857
26.45487	163330
26.46112	169646
26.46737	171922
26.47363	176140
26.47988	171377
26.48613	174295
26.49240	175161
26.49865	176032
26.50490	170939
26.51117	166256
26.51742	165665
26.52367	178480
26.52993	194027
26.53618	209031
26.54243	210879
26.54870	195077
26.55495	185468
26.56120	175442
26.56747	165903
26.57372	160089
26.57997	161892
26.58623	163487
26.59248	167089
26.59873	176235
26.60500	183588
26.61125	205226
26.61750	235441
26.62377	236619
26.63002	217482
26.63627	196450
26.64253	179872
26.64878	177480
26.65503	185842
26.66130	201241
26.66755	225388
26.67380	241024
26.68005	246257
26.68632	243490
26.69257	242018
26.69882	260846
26.70508	286688
26.71133	303895
26.71758	280819
26.72385	244195
26.73010	215188
26.73635	197336
26.74262	186970
26.74887	200638
26.75512	232242
26.76138	312030
26.76763	417272
26.77388	518517
26.78015	492445
26.78640	422610
26.79265	352697
26.79892	330397
26.80517	326214
26.81142	318554
26.81768	309700
26.82393	352452
26.83018	512435
26.83645	770638
26.84270	987537
26.84895	1002028
26.85522	776749
26.86147	538787
26.86772	366527
26.87398	303904
26.88023	315645
26.88648	381815
26.89273	491690
26.89900	597165
26.90525	879838
26.91150	1725648
26.91777	3871129
26.92402	7723476
26.93027	1.286588E+07
26.93653	1.980916E+07
26.94278	2.535635E+07
26.94903	2.674246E+07
26.95530	2.209034E+07
26.96155	1.041887E+07
26.96780	3974489
26.97407	2066217
26.98032	1294562
26.98657	844433
26.99283	579870
26.99908	455832
27.00533	446259
27.01160	555170
27.01785	872274
27.02410	1353929
27.03037	1818303
27.03662	1749177
27.04287	1372453
27.04913	913243
27.05538	634190
27.06163	501473
27.06790	462235
27.07415	421168
27.08040	386997
27.08667	343808
27.09292	314070
27.09917	286871
27.10543	270967
27.11168	251907
27.11793	256647
27.12418	289845
27.13045	364547
27.13670	488084
27.14295	588376
27.14922	617855
27.15547	514585
27.16172	407689
27.16798	328690
27.17423	294025
27.18048	289609
27.18675	286090
27.19300	277102
27.19925	268831
27.20552	262484
27.21177	258442
27.21802	261697
27.22428	264474
27.23053	261935
27.23678	257391
27.24305	257222
27.24930	267810
27.25555	290655
27.26182	291252
27.26807	279446
27.27432	256939
27.28058	247123
27.28683	236557
27.29308	229732
27.29935	231457
27.30560	237183
27.31185	229968
27.31812	233470
27.32437	235474
27.33062	235941
27.33687	240588
27.34313	229202
27.34938	238372
27.35563	238280
27.36190	243976
27.36815	246584
27.37440	250876
27.38067	240602
27.38692	247828
27.39317	253161
27.39943	270991
27.40568	303903
27.41193	355716
27.41820	389384
27.42445	373937
27.43070	323234
27.43697	285233
27.44322	254912
27.44947	233184
27.45573	228782
27.46198	222020
27.46823	216566
27.47450	212771
27.48075	212575
27.48700	216455
27.49327	220382
27.49952	210584
27.50577	207625
27.51203	204128
27.51828	209462
27.52453	210470
27.53080	208224
27.53705	211813
27.54330	215787
27.54957	207401
27.55582	213081
27.56207	208271
27.56832	203367
27.57458	200875
27.58083	208698
27.58708	208749
27.59335	210231
27.59960	204241
27.60585	205517
27.61212	204994
27.61837	207908
27.62462	210185
27.63088	208035
27.63713	212544
27.64338	217206
27.64965	214645
27.65590	214261
27.66215	204735
27.66842	206217
27.67467	208765
27.68092	215482
27.68718	214239
27.69343	209579
27.69968	218221
27.70595	213667
27.71220	218181
27.71845	231749
27.72472	239555
27.73097	241735
27.73722	242159
27.74348	231868
27.74973	225457
27.75598	227235
27.76225	239131
27.76850	234966
27.77475	238536
27.78100	226528
27.78727	225537
27.79352	221867
27.79977	220578
27.80603	211935
27.81228	220607
27.81853	215659
27.82480	217734
27.83105	210586
27.83730	214486
27.84357	219307
27.84982	230457
27.85607	245184
27.86233	252543
27.86858	265656
27.87483	264974
27.88110	254894
27.88735	248210
27.89360	240963
27.89987	235595
27.90612	226324
27.91237	226139
27.91863	218073
27.92488	224847
27.93113	225426
27.93740	219351
27.94365	219334
27.94990	225904
27.95617	223939
27.96242	217736
27.96867	219605
27.97493	219689
27.98118	232081
27.98743	225921
27.99370	240725
27.99995	238384
28.00620	239533
28.01245	234009
28.01872	230997
28.02497	232400
28.03122	226664
28.03748	227426
28.04373	224062
28.04998	220348
28.05625	229527
28.06250	220663
28.06875	223395
28.07502	223539
28.08127	218745
28.08752	221570
28.09378	216898
28.10003	216277
28.10628	227943
28.11255	224733
28.11880	218532
28.12505	229273
28.13132	227013
28.13757	220889
28.14382	229568
28.15008	232528
28.15633	227577
28.16258	229548
28.16885	222460
28.17510	219511
28.18135	226210
28.18762	228152
28.19387	225198
28.20012	230161
28.20638	220544
28.21263	227709
28.21888	226547
28.22513	228260
28.23140	227746
28.23765	229287
28.24390	230849
28.25017	224516
28.25642	231255
28.26267	226087
28.26893	228037
28.27518	235602
28.28143	234579
28.28770	237376
28.29395	245308
28.30020	250202
28.30647	251467
28.31272	254339
28.31897	264825
28.32523	263576
28.33148	278698
28.33773	291223
28.34400	283069
28.35025	297734
28.35650	302026
28.36277	308141
28.36902	307287
28.37527	323434
28.38153	321195
28.38778	322570
28.39403	327641
28.40030	322491
28.40655	313665
28.41280	326633
28.41907	319195
28.42532	322561
28.43157	316388
28.43782	312756
28.44408	312472
28.45033	304010
28.45658	285102
28.46285	293823
28.46910	291190
28.47535	275251
28.48162	276549
28.48787	275061
28.49412	274045
28.50038	259091
28.50663	254439
28.51288	254592
28.51915	252459
28.52540	254658
28.53165	252478
28.53792	244747
28.54417	241668
28.55042	249191
28.55668	238836
28.56293	242799
28.56918	243366
28.57545	237280
28.58170	232395
28.58795	229567
28.59422	238839
28.60047	239171
28.60672	235419
28.61298	237859
28.61923	229144
28.62548	233617
28.63175	240865
28.63800	226886
28.64425	233078
28.65052	236009
28.65677	236848
28.66302	230314
28.66927	225960
28.67553	233217
28.68178	230658
28.68803	227662
28.69430	220284
28.70055	226335
28.70680	231762
28.71307	222570
28.71932	227095
28.72557	230111
28.73183	227867
28.73808	235937
28.74433	236232
28.75060	229833
28.75685	235487
28.76310	224039
28.76937	218564
28.77562	223810
28.78187	223900
28.78813	221135
28.79438	218293
28.80063	218042
28.80690	222225
28.81315	217065
28.81940	225015
28.82567	217784
28.83192	226032
28.83817	217217
28.84443	217670
28.85068	219873
28.85693	222176
28.86320	224248
28.86945	226996
28.87570	214744
28.88195	214204
28.88822	218526
28.89447	214563
28.90072	217874
28.90698	224850
28.91323	212943
28.91948	214936
28.92575	220825
28.93200	221420
28.93825	224216
28.94452	215518
28.95077	221476
28.95702	217818
28.96328	220919
28.96953	213573
28.97578	214565
28.98205	216516
28.98830	217705
28.99455	214815
29.00082	222060
29.00707	216458
29.01332	219621
29.01958	226935
29.02583	224024
29.03208	226050
29.03835	215323
29.04460	214642
29.05085	215800
29.05712	212035
29.06337	221508
29.06962	219486
29.07588	219868
29.08213	220187
29.08838	220039
29.09463	221570
29.10090	220186
29.10715	219122
29.11340	217348
29.11967	217084
29.12592	216135
29.13217	215896
29.13843	216323
29.14468	211893
29.15093	207945
29.15720	214574
29.16345	209433
29.16970	217934
29.17597	216109
29.18222	208509
29.18847	208593
29.19473	219394
29.20098	220604
29.20723	215053
29.21350	213439
29.21975	217319
29.22600	218007
29.23227	238534
29.23852	230479
29.24477	235911
29.25103	236654
29.25728	240009
29.26353	233512
29.26980	221502
29.27605	222867
29.28230	225068
29.28857	221399
29.29482	216905
29.30107	220025
29.30733	218305
29.31358	214822
29.31983	212987
29.32608	222699
29.33235	211221
29.33860	210949
29.34485	218300
29.35112	212203
29.35737	208398
29.36362	212018
29.36988	214087
29.37613	210765
29.38238	207739
29.38865	208481
29.39490	205912
29.40115	208177
29.40742	214286
29.41367	208413
29.41992	209553
29.42618	216011
29.43243	207451
29.43868	204248
29.44495	213363
29.45120	214365
29.45745	208034
29.46372	214340
29.46997	208704
29.47622	213492
29.48248	206436
29.48873	206240
29.49498	212708
29.50125	210383
29.50750	210817
29.51375	205328
29.52002	206996
29.52627	206841
29.53252	214453
29.53877	203235
29.54503	207235
29.55128	209115
29.55753	215090
29.56380	214216
29.57005	205547
29.57630	202150
29.58257	207111
29.58882	213469
29.59507	207298
29.60133	203524
29.60758	203544
29.61383	204911
29.62010	214799
29.62635	207047
29.63260	206123
29.63887	203785
29.64512	202964
29.65137	209603
29.65763	203609
29.66388	205045
29.67013	200850
29.67640	201488
29.68265	205987
29.68890	208547
29.69517	214449
29.70142	204706
29.70767	199637
29.71393	205183
29.72018	207969
29.72643	209346
29.73270	210866
29.73895	205977
29.74520	206520
29.75147	201672
29.75772	209078
29.76397	207035
29.77022	200358
29.77648	205144
29.78273	207014
29.78898	200944
29.79525	209494
29.80150	206526
29.80775	209771
29.81402	200440
29.82027	209831
29.82652	200945
29.83278	205805
29.83903	202416
29.84528	201905
29.85155	203354
29.85780	200413
29.86405	203406
29.87032	200509
29.87657	203113
29.88282	202817
29.88908	205022
29.89533	202820
29.90158	199819
29.90785	200062
29.91410	206933
29.92035	200022
29.92662	208129
29.93287	206929
29.93912	205305
29.94538	201300
29.95163	196949
29.95788	198052
29.96415	203288
29.97040	196248
29.97665	195299
29.98290	199448
29.98917	202162
29.99542	203335
30.00167	203401
30.00793	206463
30.01418	197397
30.02043	196538
30.02670	203010
30.03295	202953
30.03920	196677
30.04547	198328
30.05172	193891
30.05797	198350
30.06423	195288
30.07048	202669
30.07673	204386
30.08300	199086
30.08925	200037
30.09550	195807
30.10177	202322
30.10802	203725
30.11427	203634
30.12053	192369
30.12678	196525
30.13303	198748
30.13930	194068
30.14555	192380
30.15180	202674
30.15807	193780
30.16432	191445
30.17057	200798
30.17683	204108
30.18308	193686
30.18933	194036
30.19560	193163
30.20185	192740
30.20810	197951
30.21435	199715
30.22062	193035
30.22687	193518
30.23312	191975
30.23938	198695
30.24563	199782
30.25188	192958
30.25815	193382
30.26440	197846
30.27065	193444
30.27692	192615
30.28317	191160
30.28942	193193
30.29568	194531
30.30193	193497
30.30818	189547
30.31445	191744
30.32070	201175
30.32695	197681
30.33322	189606
30.33947	191218
30.34572	200326
30.35198	199422
30.35823	190982
30.36448	196125
30.37075	197118
30.37700	197619
30.38325	197124
30.38952	194792
30.39577	194175
30.40202	188120
30.40828	194003
30.41453	193699
30.42078	193317
30.42703	193155
30.43330	193080
30.43955	190468
30.44580	190202
30.45207	188181
30.45832	188779
30.46457	194996
30.47083	196805
30.47708	193343
30.48333	198103
30.48960	189468
30.49585	194168
30.50210	192577
30.50837	197703
30.51462	191731
30.52087	190853
30.52713	190539
30.53338	186436
30.53963	189509
30.54590	188205
30.55215	194289
30.55840	196744
30.56467	184502
30.57092	191497
30.57717	191126
30.58343	194393
30.58968	184328
30.59593	186467
30.60220	185925
30.60845	192794
30.61470	188311
30.62097	187839
30.62722	194055
30.63347	196177
30.63973	187501
30.64598	186889
30.65223	186323
30.65848	185841
30.66475	193220
30.67100	197702
30.67725	197492
30.68352	205826
30.68977	213253
30.69602	214971
30.70228	220322
30.70853	222692
30.71478	218567
30.72105	217055
30.72730	215474
30.73355	202920
30.73982	202641
30.74607	192103
30.75232	193208
30.75858	197926
30.76483	191950
30.77108	190852
30.77735	195486
30.78360	197316
30.78985	192064
30.79612	189014
30.80237	188293
30.80862	187532
30.81488	189775
30.82113	193081
30.82738	190778
30.83365	188218
30.83990	185544
30.84615	192852
30.85242	187942
30.85867	191807
30.86492	182502
30.87117	183273
30.87743	191236
30.88368	185562
30.88993	186653
30.89620	191100
30.90245	191970
30.90870	190964
30.91497	190871
30.92122	195788
30.92747	190108
30.93373	191348
30.93998	189257
30.94623	187566
30.95250	184292
30.95875	192983
30.96500	190567
30.97127	193718
30.97752	193023
30.98377	187164
30.99003	189161
30.99628	195805
31.00253	190861
31.00880	197343
31.01505	193657
31.02130	195740
31.02757	200561
31.03382	194894
31.04007	189876
31.04633	188092
31.05258	192268
31.05883	186363
31.06510	184573
31.07135	191304
31.07760	188599
31.08385	182459
31.09012	188812
31.09637	181149
31.10262	185963
31.10888	181834
31.11513	188579
31.12138	186199
31.12765	183641
31.13390	181094
31.14015	188586
31.14642	183256
31.15267	184593
31.15892	181215
31.16518	183642
31.17143	179638
31.17768	181740
31.18395	180888
31.19020	181626
31.19645	181716
31.20272	188729
31.20897	186579
31.21522	182098
31.22148	178662
31.22773	183050
31.23398	182527
31.24025	180082
31.24650	178934
31.25275	186234
31.25902	182109
31.26527	184927
31.27152	184224
31.27778	181983
31.28403	181094
31.29028	184800
31.29655	188140
31.30280	179125
31.30905	181850
31.31530	180130
31.32157	181483
31.32782	177825
31.33407	185143
31.34033	182831
31.34658	184607
31.35283	188452
31.35910	185168
31.36535	188117
31.37160	179185
31.37787	183003
31.38412	179663
31.39037	179793
31.39663	178812
31.40288	186630
31.40913	184185
31.41540	184066
31.42165	183178
31.42790	180285
31.43417	183270
31.44042	176154
31.44667	182176
31.45293	185820
31.45918	182720
31.46543	177254
31.47170	181744
31.47795	184010
31.48420	182943
31.49047	179015
31.49672	174799
31.50297	179481
31.50923	180582
31.51548	181398
31.52173	175858
31.52798	183632
31.53425	179758
31.54050	179615
31.54675	176169
31.55302	184268
31.55927	178514
31.56552	177098
31.57178	182925
31.57803	176389
31.58428	181938
31.59055	179846
31.59680	177354
31.60305	175222
31.60932	182500
31.61557	174483
31.62182	175048
31.62808	176776
31.63433	179567
31.64058	175525
31.64685	176982
31.65310	177296
31.65935	178911
31.66562	176662
31.67187	182276
31.67812	180317
31.68438	175836
31.69063	179890
31.69688	176868
31.70315	170362
31.70940	176517
31.71565	184518
31.72192	172954
31.72817	181530
31.73442	172605
31.74068	174048
31.74693	180647
31.75318	176748
31.75943	179604
31.76570	172437
31.77195	178695
31.77820	176330
31.78447	176018
31.79072	173509
31.79697	169813
31.80323	179066
31.80948	178900
31.81573	175983
31.82200	180849
31.82825	179094
31.83450	171452
31.84077	172624
31.84702	182727
31.85327	172924
31.85953	172838
31.86578	172349
31.87203	174469
31.87830	173012
31.88455	168900
31.89080	177250
31.89707	171485
31.90332	171797
31.90957	172097
31.91583	175433
31.92208	170574
31.92833	179761
31.93460	173682
31.94085	172733
31.94710	170426
31.95337	171223
31.95962	172210
31.96587	168025
31.97212	170137
31.97838	170375
31.98463	177301
31.99088	170782
31.99715	178029
32.00340	172253
32.00965	171767
32.01592	171991
32.02217	174719
32.02842	173684
32.03468	171583
32.04093	168643
32.04718	171336
32.05345	169883
32.05970	174720
32.06595	169603
32.07222	169751
32.07847	171906
32.08472	170656
32.09098	177011
32.09723	177201
32.10348	165983
32.10975	172780
32.11600	172483
32.12225	176608
32.12852	167414
32.13477	172825
32.14102	166956
32.14728	170553
32.15353	173814
32.15978	173698
32.16605	174259
32.17230	167897
32.17855	173542
32.18482	170966
32.19107	170947
32.19732	172109
32.20357	176780
32.20983	165418
32.21608	174170
32.22233	176179
32.22860	169699
32.23485	168351
32.24110	176287
32.24737	173704
32.25362	175394
32.25987	175616
32.26613	174624
32.27238	170508
32.27863	170421
32.28490	168517
32.29115	168457
32.29740	176817
32.30367	169328
32.30992	169828
32.31617	167704
32.32243	165882
32.32868	168298
32.33493	165749
32.34120	166859
32.34745	173014
32.35370	165441
32.35997	171352
32.36622	168375
32.37247	170455
32.37873	164824
32.38498	175382
32.39123	169954
32.39750	173241
32.40375	170789
32.41000	168298
32.41625	164553
32.42252	165693
32.42877	167851
32.43502	172383
32.44128	167917
32.44753	169055
32.45378	164304
32.46005	167358
32.46630	160590
32.47255	168082
32.47882	165547
32.48507	165831
32.49132	165352
32.49758	171060
32.50383	167044
32.51008	168845
32.51635	170164
32.52260	165514
32.52885	164223
32.53512	170645
32.54137	169407
32.54762	171666
32.55388	164786
32.56013	171573
32.56638	171220
32.57265	164120
32.57890	166404
32.58515	163858
32.59142	169428
32.59767	165343
32.60392	170365
32.61018	170033
32.61643	166340
32.62268	165181
32.62895	169607
32.63520	168352
32.64145	169503
32.64770	166351
32.65397	165870
32.66022	163574
32.66647	171225
32.67273	169885
32.67898	161726
32.68523	168305
32.69150	166300
32.69775	163813
32.70400	161503
32.71027	164229
32.71652	160840
32.72277	163619
32.72903	161647
32.73528	164189
32.74153	169313
32.74780	163425
32.75405	167824
32.76030	171263
32.76657	163736
32.77282	168256
32.77907	161275
32.78533	159508
32.79158	169663
32.79783	159951
32.80410	167464
32.81035	163903
32.81660	166976
32.82287	167387
32.82912	157233
32.83537	162074
32.84163	166800
32.84788	157041
32.85413	166957
32.86038	159686
32.86665	169372
32.87290	165728
32.87915	163701
32.88542	163211
32.89167	162499
32.89792	162516
32.90418	160962
32.91043	159842
32.91668	166267
32.92295	161436
32.92920	166784
32.93545	158399
32.94172	168322
32.94797	163414
32.95422	161434
32.96048	160877
32.96673	162414
32.97298	164576
32.97925	165376
32.98550	165612
32.99175	164865
32.99802	161370
33.00427	165218
33.01052	164457
33.01678	163166
33.02303	161655
33.02928	162257
33.03555	162554
33.04180	163159
33.04805	164263
33.05432	158764
33.06057	166211
33.06682	161239
33.07307	168684
33.07933	164631
33.08558	160468
33.09183	159595
33.09810	159883
33.10435	157964
33.11060	156748
33.11687	160678
33.12312	160677
33.12937	162049
33.13563	167738
33.14188	162586
33.14813	166438
33.15440	165944
33.16065	176946
33.16690	175097
33.17317	172603
33.17942	180984
33.18567	172386
33.19193	170055
33.19818	176284
33.20443	174985
33.21070	173192
33.21695	170903
33.22320	170606
33.22947	165794
33.23572	161985
33.24197	161604
33.24823	163989
33.25448	155199
33.26073	158898
33.26700	159818
33.27325	161638
33.27950	164121
33.28577	156639
33.29202	166000
33.29827	158735
33.30452	164239
33.31078	163682
33.31703	160169
33.32328	160005
33.32955	156784
33.33580	157399
33.34205	158758
33.34832	158746
33.35457	158559
33.36082	157085
33.36708	165462
33.37333	158318
33.37958	160072
33.38585	168308
33.39210	161383
33.39835	161792
33.40462	158728
33.41087	161695
33.41712	163372
33.42338	160616
33.42963	157030
33.43588	164121
33.44215	157928
33.44840	158195
33.45465	160615
33.46092	158044
33.46717	157749
33.47342	155442
33.47968	155269
33.48593	156342
33.49218	161285
33.49845	162252
33.50470	154236
33.51095	157089
33.51720	162303
33.52347	159652
33.52972	162836
33.53597	155783
33.54223	159227
33.54848	156596
33.55473	158773
33.56100	153112
33.56725	159851
33.57350	152788
33.57977	152617
33.58602	155820
33.59227	153484
33.59853	160755
33.60478	154136
33.61103	153492
33.61730	161151
33.62355	153881
33.62980	160224
33.63607	154355
33.64232	154204
33.64857	158035
33.65483	159751
33.66108	152833
33.66733	156391
33.67360	153444
33.67985	156693
33.68610	157802
33.69237	156059
33.69862	156401
33.70487	157948
33.71113	161032
33.71738	159190
33.72363	159850
33.72988	158303
33.73615	158699
33.74240	160220
33.74865	156821
33.75492	154538
33.76117	154114
33.76742	153768
33.77368	147361
33.77993	153245
33.78618	154296
33.79245	152781
33.79870	152638
33.80495	156374
33.81122	159714
33.81747	153931
33.82372	156969
33.82998	151181
33.83623	157762
33.84248	154118
33.84875	155778
33.85500	156127
33.86125	149077
33.86752	157296
33.87377	151642
33.88002	157260
33.88628	152945
33.89253	152221
33.89878	155121
33.90505	153294
33.91130	154074
33.91755	153644
33.92382	147412
33.93007	151710
33.93632	154666
33.94258	152588
33.94883	157376
33.95508	152793
33.96133	149169
33.96760	154433
33.97385	155579
33.98010	155455
33.98637	160352
33.99262	152360
33.99887	152636
34.00513	149060
34.01138	157842
34.01763	151461
34.02390	151274
34.03015	150646
34.03640	152822
34.04267	153066
34.04892	152782
34.05517	151303
34.06143	157222
34.06768	155649
34.07393	152856
34.08020	156742
34.08645	153505
34.09270	146014
34.09897	152637
34.10522	151274
34.11147	150247
34.11773	151368
34.12398	152684
34.13023	152742
34.13650	149907
34.14275	148390
34.14900	148401
34.15527	149825
34.16152	155805
34.16777	153366
34.17402	151486
34.18028	151014
34.18653	152071
34.19278	152222
34.19905	156551
34.20530	150500
34.21155	152532
34.21782	156190
34.22407	153437
34.23032	154326
34.23658	150211
34.24283	155912
34.24908	151887
34.25535	150153
34.26160	147587
34.26785	148721
34.27412	150326
34.28037	147498
34.28662	152816
34.29288	149145
34.29913	145603
34.30538	147225
34.31165	145332
34.31790	149920
34.32415	152433
34.33042	147418
34.33667	154073
34.34292	147405
34.34918	156227
34.35543	154046
34.36168	153095
34.36795	152442
34.37420	151265
34.38045	156868
34.38672	145697
34.39297	155420
34.39922	153938
34.40547	153422
34.41173	149018
34.41798	150989
34.42423	152140
34.43050	147368
34.43675	148252
34.44300	149734
34.44927	148954
34.45552	148768
34.46177	151311
34.46803	149632
34.47428	148024
34.48053	153436
34.48680	146430
34.49305	147333
34.49930	146655
34.50557	146459
34.51182	144414
34.51807	148033
34.52433	147084
34.53058	149424
34.53683	147720
34.54310	144317
34.54935	149730
34.55560	146558
34.56187	152898
34.56812	143357
34.57437	146843
34.58063	147313
34.58688	151782
34.59313	147729
34.59940	147668
34.60565	149675
34.61190	147939
34.61815	148595
34.62442	147173
34.63067	147947
34.63692	149583
34.64318	150903
34.64943	153943
34.65568	147293
34.66195	145028
34.66820	150593
34.67445	146598
34.68072	148395
34.68697	145372
34.69322	148243
34.69948	143877
34.70573	143181
34.71198	146152
34.71825	147407
34.72450	148348
34.73075	150359
34.73702	143238
34.74327	144122
34.74952	145792
34.75578	149822
34.76203	150453
34.76828	148932
34.77455	146820
34.78080	149907
34.78705	145193
34.79332	143927
34.79957	143778
34.80582	146532
34.81208	143418
34.81833	150884
34.82458	147298
34.83085	144039
34.83710	151247
34.84335	145034
34.84960	150100
34.85587	144629
34.86212	142804
34.86837	143009
34.87463	148988
34.88088	145921
34.88713	147249
34.89340	145272
34.89965	143370
34.90590	145646
34.91217	140801
34.91842	147533
34.92467	147045
34.93093	146017
34.93718	149123
34.94343	145848
34.94970	145136
34.95595	146669
34.96220	145360
34.96847	146359
34.97472	146075
34.98097	147349
34.98723	141273
34.99348	141621
34.99973	142152
35.00600	144156
35.01225	144469
35.01850	141472
35.02477	148391
35.03102	139589
35.03727	141632
35.04353	142544
35.04978	142654
35.05603	141753
35.06228	141644
35.06855	141038
35.07480	141352
35.08105	143761
35.08732	145020
35.09357	143866
35.09982	146670
35.10608	142227
35.11233	144028
35.11858	142716
35.12485	148218
35.13110	146262
35.13735	143396
35.14362	148614
35.14987	147186
35.15612	140361
35.16238	142966
35.16863	140019
35.17488	143636
35.18115	143312
35.18740	147483
35.19365	142254
35.19992	141152
35.20617	140704
35.21242	145356
35.21868	141183
35.22493	139415
35.23118	141248
35.23745	139479
35.24370	139497
35.24995	143295
35.25622	139431
35.26247	144282
35.26872	140300
35.27498	139006
35.28123	142513
35.28748	140955
35.29373	142985
35.30000	145272
35.30625	140625
35.31250	142236
35.31877	137317
35.32502	143450
35.33127	140795
35.33753	139682
35.34378	142492
35.35003	140949
35.35630	141505
35.36255	139897
35.36880	145293
35.37507	140583
35.38132	136251
35.38757	144996
35.39383	144634
35.40008	140422
35.40633	143197
35.41260	139386
35.41885	143642
35.42510	141407
35.43137	139062
35.43762	140698
35.44387	147494
35.45013	142782
35.45638	144363
35.46263	139004
35.46890	140615
35.47515	139064
35.48140	141053
35.48767	140716
35.49392	146101
35.50017	143530
35.50642	142133
35.51268	140147
35.51893	142682
35.52518	138083
35.53145	140585
35.53770	143229
35.54395	142774
35.55022	138237
35.55647	140663
35.56272	144058
35.56898	142598
35.57523	138346
35.58148	140678
35.58775	140293
35.59400	147349
35.60025	141531
35.60652	140950
35.61277	139380
35.61902	143993
35.62528	138801
35.63153	143944
35.63778	142529
35.64405	141766
35.65030	137438
35.65655	137701
35.66282	141596
35.66907	135958
35.67532	139362
35.68158	139758
35.68783	135152
35.69408	139995
35.70035	136278
35.70660	140125
35.71285	136741
35.71910	136015
35.72537	138850
35.73162	138442
35.73787	137515
35.74413	139488
35.75038	143308
35.75663	136806
35.76290	134819
35.76915	141882
35.77540	140282
35.78167	138026
35.78792	141780
35.79417	136737
35.80043	135174
35.80668	138304
35.81293	139290
35.81920	135584
35.82545	136335
35.83170	139315
35.83797	132852
35.84422	136699
35.85047	136408
35.85673	141898
35.86298	138310
35.86923	137415
35.87550	137893
35.88175	135970
35.88800	135760
35.89427	140477
35.90052	137005
35.90677	141871
35.91303	139377
35.91928	136552
35.92553	132263
35.93180	137581
35.93805	134747
35.94430	139175
35.95055	139991
35.95682	138190
35.96307	139578
35.96932	137091
35.97558	133987
35.98183	136455
35.98808	135520
35.99435	136394
36.00060	136316
36.00685	136653
36.01312	139920
36.01937	137295
36.02562	132545
36.03188	136015
36.03813	136190
36.04438	134440
36.05065	141240
36.05690	140755
36.06315	141342
36.06942	134415
36.07567	135915
36.08192	137891
36.08818	133766
36.09443	140396
36.10068	141168
36.10695	138834
36.11320	133425
36.11945	139149
36.12572	147628
36.13197	159045
36.13822	138729
36.14448	136668
36.15073	138260
36.15698	133147
36.16323	139521
36.16950	131973
36.17575	133967
36.18200	134636
36.18827	136721
36.19452	136527
36.20077	135792
36.20703	139189
36.21328	138580
36.21953	142179
36.22580	137170
36.23205	136784
36.23830	140643
36.24457	141596
36.25082	148407
36.25707	150144
36.26333	162538
36.26958	170468
36.27583	178901
36.28210	177930
36.28835	190577
36.29460	207612
36.30087	217038
36.30712	229133
36.31337	241966
36.31963	247575
36.32588	256576
36.33213	260454
36.33840	268999
36.34465	259360
36.35090	240255
36.35717	234129
36.36342	233306
36.36967	226874
36.37592	212100
36.38218	210332
36.38843	190678
36.39468	185015
36.40095	175001
36.40720	167240
36.41345	169617
36.41972	161319
36.42597	152072
36.43222	153471
36.43848	153829
36.44473	147464
36.45098	151084
36.45725	147219
36.46350	145031
36.46975	144656
36.47602	143662
36.48227	144211
36.48852	144794
36.49478	144388
36.50103	139252
36.50728	137892
36.51355	144907
36.51980	141552
36.52605	143293
36.53232	140080
36.53857	141972
36.54482	138767
36.55108	140423
36.55733	139644
36.56358	139638
36.56985	135336
36.57610	142055
36.58235	137620
36.58862	139048
36.59487	134425
36.60112	137963
36.60737	137057
36.61363	139736
36.61988	140963
36.62613	141289
36.63240	135880
36.63865	139302
36.64490	137071
36.65117	142858
36.65742	136737
36.66367	138426
36.66993	137047
36.67618	137117
36.68243	139908
36.68870	135613
36.69495	140309
36.70120	140351
36.70747	135445
36.71372	134344
36.71997	135814
36.72623	132990
36.73248	134000
36.73873	140266
36.74500	134367
36.75125	135958
36.75750	133440
36.76377	136890
36.77002	133302
36.77627	135293
36.78253	132326
36.78878	137986
36.79503	138798
36.80130	136173
36.80755	133113
36.81380	138734
36.82005	137696
36.82632	134715
36.83257	135431
36.83882	134359
36.84508	135213
36.85133	137521
36.85758	132556
36.86385	133622
36.87010	130422
36.87635	138854
36.88262	136336
36.88887	134277
36.89512	136494
36.90138	130428
36.90763	131276
36.91388	128020
36.92015	133325
36.92640	136734
36.93265	135319
36.93892	137458
36.94517	132947
36.95142	137542
36.95768	135001
36.96393	131255
36.97018	129337
36.97645	130373
36.98270	130314
36.98895	128773
36.99522	135134
37.00147	136767
37.00772	128984
37.01398	130962
37.02023	133912
37.02648	131688
37.03275	129190
37.03900	129383
37.04525	134646
37.05150	128950
37.05777	130626
37.06402	130959
37.07027	131226
37.07653	131737
37.08278	132431
37.08903	134321
37.09530	137181
37.10155	130859
37.10780	128794
37.11407	131226
37.12032	131696
37.12657	128890
37.13283	131719
37.13908	131048
37.14533	133634
37.15160	134148
37.15785	130904
37.16410	131947
37.17037	130904
37.17662	129423
37.18287	131458
37.18913	131543
37.19538	135357
37.20163	130868
37.20790	132864
37.21415	128849
37.22040	129876
37.22667	134579
37.23292	134028
37.23917	130487
37.24543	126511
37.25168	130944
37.25793	130484
37.26418	128715
37.27045	128836
37.27670	128860
37.28295	127116
37.28922	130468
37.29547	129112
37.30172	129221
37.30798	126640
37.31423	129757
37.32048	128579
37.32675	129196
37.33300	130351
37.33925	134003
37.34552	126075
37.35177	130770
37.35802	124918
37.36428	128720
37.37053	130815
37.37678	126127
37.38305	127565
37.38930	127977
37.39555	126834
37.40182	126518
37.40807	130965
37.41432	127499
37.42058	130674
37.42683	123488
37.43308	129805
37.43935	126727
37.44560	127202
37.45185	131535
37.45812	128797
37.46437	128073
37.47062	127756
37.47688	129842
37.48313	126625
37.48938	131472
