D:\MassHunter\GCMS\1\data\metastasis_lineages_3replicates_3runs_10302020\ethyl_acetate_run4_10302020.D Sat Oct 31 17:50:58 2020
Start of data points
5.99338	46075
5.99963	49165
6.00590	51982
6.01215	52741
6.01840	51035
6.02467	50421
6.03092	50126
6.03717	49839
6.04343	47788
6.04968	50155
6.05593	47075
6.06220	50365
6.06845	49215
6.07470	47724
6.08097	45840
6.08722	47095
6.09347	49480
6.09973	48171
6.10598	50277
6.11223	51222
6.11850	53039
6.12475	53823
6.13100	52513
6.13727	49974
6.14352	51783
6.14977	54042
6.15602	60917
6.16228	66769
6.16853	61502
6.17478	54681
6.18105	53107
6.18730	48682
6.19355	49640
6.19982	46846
6.20607	47126
6.21232	48683
6.21858	47664
6.22483	47030
6.23108	46696
6.23735	47412
6.24360	48302
6.24985	49506
6.25612	49920
6.26237	63234
6.26862	128211
6.27488	334937
6.28113	705519
6.28738	973003
6.29365	856652
6.29990	545545
6.30615	325127
6.31242	224731
6.31867	186008
6.32492	157436
6.33118	142577
6.33743	127365
6.34368	119870
6.34995	111640
6.35620	101664
6.36245	93770
6.36872	87227
6.37497	82760
6.38122	77017
6.38747	76866
6.39373	78428
6.39998	76016
6.40623	71429
6.41250	69853
6.41875	63720
6.42500	60088
6.43127	59224
6.43752	56761
6.44377	56254
6.45003	53766
6.45628	55178
6.46253	54794
6.46880	54660
6.47505	55204
6.48130	54974
6.48757	60405
6.49382	66975
6.50007	67317
6.50633	64178
6.51258	60593
6.51883	57262
6.52510	55938
6.53135	54450
6.53760	53565
6.54387	50551
6.55012	52177
6.55637	50585
6.56263	48981
6.56888	49487
6.57513	48252
6.58140	49343
6.58765	46598
6.59390	45719
6.60015	46614
6.60642	47324
6.61267	44643
6.61892	44322
6.62518	44905
6.63143	48679
6.63768	50050
6.64395	50851
6.65020	48358
6.65645	46319
6.66272	49932
6.66897	46656
6.67522	46384
6.68148	46221
6.68773	45468
6.69398	44504
6.70025	43831
6.70650	43434
6.71275	44466
6.71902	45630
6.72527	45445
6.73152	45217
6.73778	45890
6.74403	43012
6.75028	44460
6.75655	46228
6.76280	42854
6.76905	44864
6.77532	44730
6.78157	46097
6.78782	45262
6.79408	44005
6.80033	45184
6.80658	44553
6.81283	44809
6.81910	47200
6.82535	47260
6.83160	44067
6.83787	42506
6.84412	40968
6.85037	42386
6.85663	42151
6.86288	40510
6.86913	40944
6.87540	41898
6.88165	42696
6.88790	43120
6.89417	47842
6.90042	47234
6.90667	47298
6.91293	44248
6.91918	43246
6.92543	40795
6.93170	41108
6.93795	39275
6.94420	41369
6.95047	41804
6.95672	42357
6.96297	39979
6.96923	40425
6.97548	38857
6.98173	40386
6.98800	40862
6.99425	38292
7.00050	41069
7.00677	41536
7.01302	40877
7.01927	41316
7.02553	40397
7.03178	39795
7.03803	41447
7.04428	41623
7.05055	39974
7.05680	43485
7.06305	43915
7.06932	43152
7.07557	39985
7.08182	39228
7.08808	39646
7.09433	40994
7.10058	39261
7.10685	40050
7.11310	40333
7.11935	37562
7.12562	38965
7.13187	38655
7.13812	36374
7.14438	38085
7.15063	37120
7.15688	38206
7.16315	40144
7.16940	40089
7.17565	38583
7.18192	39804
7.18817	37281
7.19442	38562
7.20068	37851
7.20693	37468
7.21318	36845
7.21945	38938
7.22570	35675
7.23195	37521
7.23822	37034
7.24447	38127
7.25072	39176
7.25697	37005
7.26323	36692
7.26948	37908
7.27573	35562
7.28200	35823
7.28825	36545
7.29450	38320
7.30077	36783
7.30702	37587
7.31327	37478
7.31953	41057
7.32578	47545
7.33203	47522
7.33830	47926
7.34455	44168
7.35080	42401
7.35707	41376
7.36332	39501
7.36957	39182
7.37583	39023
7.38208	40199
7.38833	36182
7.39460	39535
7.40085	36760
7.40710	37470
7.41337	36794
7.41962	36866
7.42587	35729
7.43213	35734
7.43838	37518
7.44463	37120
7.45090	41370
7.45715	53069
7.46340	77380
7.46965	94771
7.47592	94029
7.48217	77266
7.48842	62494
7.49468	60520
7.50093	64539
7.50718	67294
7.51345	66200
7.51970	78807
7.52595	151881
7.53222	323895
7.53847	541766
7.54472	659959
7.55098	596271
7.55723	410033
7.56348	262941
7.56975	178228
7.57600	134738
7.58225	106377
7.58852	89137
7.59477	77577
7.60102	69969
7.60728	61377
7.61353	55689
7.61978	49526
7.62605	47631
7.63230	46634
7.63855	45850
7.64482	46061
7.65107	44732
7.65732	44144
7.66358	43332
7.66983	41814
7.67608	41302
7.68235	41140
7.68860	38483
7.69485	40473
7.70110	37123
7.70737	36658
7.71362	36519
7.71987	35571
7.72613	37503
7.73238	37837
7.73863	38151
7.74490	39489
7.75115	36671
7.75740	36902
7.76367	38041
7.76992	36548
7.77617	36046
7.78243	36322
7.78868	35219
7.79493	36493
7.80120	41686
7.80745	45410
7.81370	43151
7.81997	42454
7.82622	40519
7.83247	37396
7.83873	35430
7.84498	33094
7.85123	33627
7.85750	33476
7.86375	32857
7.87000	31440
7.87627	32756
7.88252	30732
7.88877	32323
7.89503	30721
7.90128	34499
7.90753	33065
7.91378	36259
7.92005	34507
7.92630	36537
7.93255	36967
7.93882	42304
7.94507	43580
7.95132	43349
7.95758	42760
7.96383	39636
7.97008	39256
7.97635	35856
7.98260	34332
7.98885	36274
7.99512	35864
8.00137	38713
8.00762	40886
8.01388	43250
8.02013	42350
8.02638	37681
8.03265	37678
8.03890	35751
8.04515	33872
8.05142	35237
8.05767	35415
8.06392	35220
8.07018	30631
8.07643	30647
8.08268	31921
8.08895	33042
8.09520	30176
8.10145	32050
8.10772	30346
8.11397	32207
8.12022	30942
8.12648	32362
8.13273	33903
8.13898	35402
8.14523	34545
8.15150	31147
8.15775	30858
8.16400	30296
8.17027	31729
8.17652	30406
8.18277	31979
8.18903	31809
8.19528	31210
8.20153	31275
8.20780	29597
8.21405	30132
8.22030	30406
8.22657	33042
8.23282	33432
8.23907	31472
8.24533	31014
8.25158	30932
8.25783	31256
8.26410	31933
8.27035	28025
8.27660	30389
8.28287	30257
8.28912	29575
8.29537	29699
8.30163	30657
8.30788	31869
8.31413	31044
8.32040	31462
8.32665	32211
8.33290	32287
8.33917	36191
8.34542	33304
8.35167	32521
8.35792	30893
8.36418	30810
8.37043	30791
8.37668	31043
8.38295	29486
8.38920	32753
8.39545	30512
8.40172	29286
8.40797	31080
8.41422	30207
8.42048	30793
8.42673	31226
8.43298	33764
8.43925	33278
8.44550	31775
8.45175	31968
8.45802	33438
8.46427	33967
8.47052	32001
8.47678	31163
8.48303	30170
8.48928	31219
8.49555	31510
8.50180	30435
8.50805	31526
8.51432	32435
8.52057	29905
8.52682	32428
8.53308	33601
8.53933	32505
8.54558	34135
8.55185	34397
8.55810	32400
8.56435	31632
8.57062	31764
8.57687	33001
8.58312	33925
8.58937	35058
8.59563	35217
8.60188	35351
8.60813	37109
8.61440	36996
8.62065	36754
8.62690	35230
8.63317	36965
8.63942	35501
8.64567	36365
8.65193	36071
8.65818	35417
8.66443	36312
8.67070	37033
8.67695	38744
8.68320	38521
8.68947	37168
8.69572	39338
8.70197	36960
8.70823	36997
8.71448	34432
8.72073	34476
8.72700	33226
8.73325	31307
8.73950	32252
8.74577	31256
8.75202	32142
8.75827	31451
8.76453	30067
8.77078	30867
8.77703	31420
8.78330	31440
8.78955	30943
8.79580	29229
8.80205	31596
8.80832	34435
8.81457	40414
8.82082	42431
8.82708	46096
8.83333	43763
8.83958	41275
8.84585	39039
8.85210	35700
8.85835	34964
8.86462	36413
8.87087	34423
8.87712	37036
8.88338	34542
8.88963	34691
8.89588	35032
8.90215	33437
8.90840	33835
8.91465	31598
8.92092	30937
8.92717	31730
8.93342	31392
8.93968	30948
8.94593	35505
8.95218	39474
8.95845	44755
8.96470	45922
8.97095	45016
8.97722	41817
8.98347	38749
8.98972	37866
8.99598	36384
9.00223	37065
9.00848	36187
9.01475	35810
9.02100	35314
9.02725	33566
9.03350	33660
9.03977	34129
9.04602	34782
9.05227	35241
9.05853	36307
9.06478	37008
9.07103	36492
9.07730	35233
9.08355	34826
9.08980	34683
9.09607	34486
9.10232	34509
9.10857	33431
9.11483	36841
9.12108	34598
9.12733	34403
9.13360	32157
9.13985	32462
9.14610	35385
9.15237	36282
9.15862	40545
9.16487	50790
9.17113	51066
9.17738	48349
9.18363	45732
9.18990	41407
9.19615	45984
9.20240	46608
9.20867	41933
9.21492	40983
9.22117	37756
9.22743	35200
9.23368	34947
9.23993	33245
9.24618	30874
9.25245	31795
9.25870	29480
9.26495	28656
9.27122	27431
9.27747	26141
9.28372	29064
9.28998	28769
9.29623	29270
9.30248	30598
9.30875	27177
9.31500	29003
9.32125	30075
9.32752	30598
9.33377	28355
9.34002	28556
9.34628	27829
9.35253	28715
9.35878	27452
9.36505	28099
9.37130	28915
9.37755	29998
9.38382	32586
9.39007	29310
9.39632	30206
9.40258	28738
9.40883	35913
9.41508	75695
9.42135	186994
9.42760	386379
9.43385	628197
9.44012	729258
9.44637	566478
9.45262	337127
9.45887	172981
9.46513	94022
9.47138	65082
9.47763	52601
9.48390	44286
9.49015	39095
9.49640	37285
9.50267	34048
9.50892	33673
9.51517	35764
9.52143	33086
9.52768	33747
9.53393	30826
9.54020	29310
9.54645	26679
9.55270	28336
9.55897	29306
9.56522	28855
9.57147	29516
9.57773	30483
9.58398	28549
9.59023	31940
9.59650	29046
9.60275	30439
9.60900	29798
9.61527	29455
9.62152	29366
9.62777	29964
9.63403	28277
9.64028	29050
9.64653	29219
9.65280	29802
9.65905	29884
9.66530	28027
9.67157	30994
9.67782	34646
9.68407	35958
9.69032	35036
9.69658	32516
9.70283	30256
9.70908	28448
9.71535	28231
9.72160	26662
9.72785	27335
9.73412	26566
9.74037	28288
9.74662	27992
9.75288	26710
9.75913	27493
9.76538	26790
9.77165	26302
9.77790	28472
9.78415	27799
9.79042	28768
9.79667	28525
9.80292	27650
9.80918	26706
9.81543	26205
9.82168	26654
9.82795	27564
9.83420	28120
9.84045	28834
9.84672	32808
9.85297	41521
9.85922	46446
9.86548	46146
9.87173	44114
9.87798	35886
9.88425	30650
9.89050	29428
9.89675	32739
9.90300	35434
9.90927	34055
9.91552	30844
9.92177	29689
9.92803	27768
9.93428	26862
9.94053	28424
9.94680	28605
9.95305	29196
9.95930	32118
9.96557	46212
9.97182	104571
9.97807	242142
9.98433	453941
9.99058	582055
9.99683	528207
10.00310	344833
10.00935	174968
10.01560	90383
10.02187	51718
10.02812	39090
10.03437	33659
10.04063	30944
10.04688	29448
10.05313	29531
10.05940	28917
10.06565	30019
10.07190	28110
10.07817	27092
10.08442	25104
10.09067	28521
10.09693	26535
10.10318	27053
10.10943	27423
10.11568	26676
10.12195	26278
10.12820	28513
10.13445	29029
10.14072	24478
10.14697	25133
10.15322	26386
10.15948	27043
10.16573	27441
10.17198	27715
10.17825	26893
10.18450	27498
10.19075	26449
10.19702	29197
10.20327	26181
10.20952	26243
10.21578	26840
10.22203	28254
10.22828	29571
10.23455	32167
10.24080	28955
10.24705	29070
10.25332	29133
10.25957	27110
10.26582	26452
10.27208	27353
10.27833	26946
10.28458	28649
10.29085	31035
10.29710	29376
10.30335	28764
10.30962	28947
10.31587	25837
10.32212	26584
10.32838	27519
10.33463	26106
10.34088	25823
10.34713	25499
10.35340	27198
10.35965	25624
10.36590	26896
10.37217	27541
10.37842	27208
10.38467	26140
10.39093	26115
10.39718	26261
10.40343	26410
10.40970	25836
10.41595	24679
10.42220	24782
10.42847	26262
10.43472	24372
10.44097	25172
10.44723	24058
10.45348	26056
10.45973	26611
10.46600	36438
10.47225	59690
10.47850	104474
10.48477	143139
10.49102	146265
10.49727	110672
10.50353	66067
10.50978	44176
10.51603	33908
10.52230	31890
10.52855	29307
10.53480	29935
10.54107	26548
10.54732	26839
10.55357	26740
10.55982	26682
10.56608	28184
10.57233	27591
10.57858	28932
10.58485	27519
10.59110	28242
10.59735	25348
10.60362	26230
10.60987	25504
10.61612	26255
10.62238	28181
10.62863	28527
10.63488	25157
10.64115	25801
10.64740	26326
10.65365	27616
10.65992	28342
10.66617	27332
10.67242	28722
10.67868	28305
10.68493	26110
10.69118	25982
10.69745	25945
10.70370	25771
10.70995	26239
10.71622	24386
10.72247	26666
10.72872	26555
10.73498	26124
10.74123	26140
10.74748	24325
10.75375	24928
10.76000	26886
10.76625	25422
10.77252	27078
10.77877	29725
10.78502	34359
10.79127	33067
10.79753	30577
10.80378	27799
10.81003	26268
10.81630	26344
10.82255	25502
10.82880	24300
10.83507	24316
10.84132	24544
10.84757	23714
10.85383	27212
10.86008	26893
10.86633	27350
10.87260	25901
10.87885	26556
10.88510	25764
10.89137	27210
10.89762	28609
10.90387	30322
10.91013	28452
10.91638	27409
10.92263	28078
10.92890	24659
10.93515	24852
10.94140	26262
10.94767	25028
10.95392	25400
10.96017	25617
10.96643	25415
10.97268	25331
10.97893	26382
10.98520	26213
10.99145	25796
10.99770	25359
11.00395	24276
11.01022	23743
11.01647	23982
11.02272	23884
11.02898	23757
11.03523	25531
11.04148	26152
11.04775	26011
11.05400	28158
11.06025	26446
11.06652	26497
11.07277	25124
11.07902	25879
11.08528	25918
11.09153	25649
11.09778	25553
11.10405	25424
11.11030	26095
11.11655	30607
11.12282	32905
11.12907	38291
11.13532	39556
11.14158	36232
11.14783	31868
11.15408	29671
11.16035	27715
11.16660	28056
11.17285	27254
11.17912	28316
11.18537	26667
11.19162	26226
11.19788	26167
11.20413	28181
11.21038	31055
11.21665	35020
11.22290	33221
11.22915	31809
11.23540	30372
11.24167	25630
11.24792	26301
11.25417	25443
11.26043	26450
11.26668	27890
11.27293	29190
11.27920	31651
11.28545	31344
11.29170	31928
11.29797	27682
11.30422	27297
11.31047	27240
11.31673	24137
11.32298	24370
11.32923	24188
11.33550	24568
11.34175	24201
11.34800	23943
11.35427	22150
11.36052	24389
11.36677	24347
11.37303	25417
11.37928	23205
11.38553	23525
11.39180	23600
11.39805	24166
11.40430	23762
11.41057	24359
11.41682	23389
11.42307	23979
11.42933	24024
11.43558	22768
11.44183	23459
11.44808	22583
11.45435	23161
11.46060	22474
11.46685	23641
11.47312	23566
11.47937	23642
11.48562	22591
11.49188	23336
11.49813	23460
11.50438	23866
11.51065	23104
11.51690	23764
11.52315	23211
11.52942	21995
11.53567	24187
11.54192	25042
11.54818	23260
11.55443	22757
11.56068	23995
11.56695	22633
11.57320	22539
11.57945	21192
11.58572	23096
11.59197	24270
11.59822	23458
11.60448	24178
11.61073	22719
11.61698	22142
11.62325	22975
11.62950	23946
11.63575	23308
11.64202	25287
11.64827	24632
11.65452	24968
11.66078	24722
11.66703	24969
11.67328	23866
11.67953	24501
11.68580	23451
11.69205	22839
11.69830	22856
11.70457	24035
11.71082	23654
11.71707	25067
11.72333	26721
11.72958	32827
11.73583	40087
11.74210	48140
11.74835	44777
11.75460	34929
11.76087	31213
11.76712	27906
11.77337	27621
11.77963	26325
11.78588	24229
11.79213	25134
11.79840	24238
11.80465	26085
11.81090	26257
11.81717	24998
11.82342	25517
11.82967	24030
11.83593	23006
11.84218	23199
11.84843	22834
11.85470	24056
11.86095	23821
11.86720	23074
11.87347	23684
11.87972	22850
11.88597	23318
11.89222	23776
11.89848	25301
11.90473	26975
11.91098	24471
11.91725	26047
11.92350	27195
11.92975	27155
11.93602	25331
11.94227	26404
11.94852	26374
11.95478	31336
11.96103	35887
11.96728	38116
11.97355	35661
11.97980	31311
11.98605	27666
11.99232	24825
11.99857	23960
12.00482	26464
12.01108	23831
12.01733	25876
12.02358	24966
12.02985	25831
12.03610	24584
12.04235	24904
12.04862	25422
12.05487	23571
12.06112	25281
12.06738	26119
12.07363	21537
12.07988	23736
12.08615	24140
12.09240	25027
12.09865	23679
12.10490	25668
12.11117	24683
12.11742	24390
12.12367	24506
12.12993	26105
12.13618	25592
12.14243	23312
12.14870	26113
12.15495	24433
12.16120	25865
12.16747	27343
12.17372	27298
12.17997	29772
12.18623	28154
12.19248	29259
12.19873	32109
12.20500	51192
12.21125	104995
12.21750	189261
12.22377	264132
12.23002	261710
12.23627	185505
12.24253	97958
12.24878	47974
12.25503	29773
12.26130	26120
12.26755	28541
12.27380	32260
12.28007	29315
12.28632	29816
12.29257	27868
12.29883	24919
12.30508	25200
12.31133	23904
12.31760	23081
12.32385	24922
12.33010	25156
12.33635	25959
12.34262	24262
12.34887	24270
12.35512	24476
12.36138	24875
12.36763	23595
12.37388	24140
12.38015	24087
12.38640	24871
12.39265	26593
12.39892	28125
12.40517	28151
12.41142	29823
12.41768	36279
12.42393	49869
12.43018	54754
12.43645	49781
12.44270	39418
12.44895	35468
12.45522	30137
12.46147	25776
12.46772	23909
12.47398	24834
12.48023	26651
12.48648	32680
12.49275	34270
12.49900	34406
12.50525	31445
12.51152	30030
12.51777	27426
12.52402	26596
12.53028	24283
12.53653	24898
12.54278	27597
12.54903	27746
12.55530	26983
12.56155	26692
12.56780	24373
12.57407	26345
12.58032	30227
12.58657	32157
12.59283	33417
12.59908	29391
12.60533	26924
12.61160	25688
12.61785	25232
12.62410	25927
12.63037	29001
12.63662	38451
12.64287	57048
12.64913	82009
12.65538	102317
12.66163	101750
12.66790	80224
12.67415	51598
12.68040	35728
12.68667	30902
12.69292	28072
12.69917	26578
12.70543	25195
12.71168	25896
12.71793	27426
12.72420	25934
12.73045	26586
12.73670	26261
12.74297	25359
12.74922	26762
12.75547	28472
12.76172	29064
12.76798	30025
12.77423	30786
12.78048	27840
12.78675	28909
12.79300	28211
12.79925	25999
12.80552	26072
12.81177	26604
12.81802	27063
12.82428	27135
12.83053	25837
12.83678	25640
12.84305	25973
12.84930	25434
12.85555	25503
12.86182	23391
12.86807	24635
12.87432	26197
12.88058	29845
12.88683	37842
12.89308	45755
12.89935	47252
12.90560	42642
12.91185	34950
12.91812	27917
12.92437	26131
12.93062	26889
12.93688	27478
12.94313	25244
12.94938	25172
12.95565	24115
12.96190	22953
12.96815	24624
12.97442	23454
12.98067	23749
12.98692	23605
12.99317	23812
12.99943	22790
13.00568	25370
13.01193	23761
13.01820	25717
13.02445	23707
13.03070	24123
13.03697	26972
13.04322	26775
13.04947	24337
13.05573	23689
13.06198	24647
13.06823	23679
13.07450	26935
13.08075	39457
13.08700	71059
13.09327	138341
13.09952	193650
13.10577	190441
13.11203	132711
13.11828	75322
13.12453	40780
13.13080	28629
13.13705	25964
13.14330	26070
13.14957	30528
13.15582	34924
13.16207	38354
13.16833	35159
13.17458	29920
13.18083	26976
13.18710	25261
13.19335	23511
13.19960	22917
13.20585	24695
13.21212	25191
13.21837	24324
13.22462	22068
13.23088	23891
13.23713	23563
13.24338	22140
13.24965	23763
13.25590	26318
13.26215	27831
13.26842	30432
13.27467	30278
13.28092	26145
13.28718	24757
13.29343	23551
13.29968	23509
13.30595	24811
13.31220	25724
13.31845	26905
13.32472	25721
13.33097	25562
13.33722	24794
13.34348	22750
13.34973	22902
13.35598	23893
13.36225	27556
13.36850	26247
13.37475	25877
13.38102	25775
13.38727	25540
13.39352	21889
13.39978	23128
13.40603	23496
13.41228	24394
13.41855	23346
13.42480	22545
13.43105	23435
13.43730	22944
13.44357	25786
13.44982	23477
13.45607	23082
13.46233	23523
13.46858	22470
13.47483	23196
13.48110	24084
13.48735	27627
13.49360	26476
13.49987	26907
13.50612	24259
13.51237	23737
13.51863	24803
13.52488	23315
13.53113	23840
13.53740	23909
13.54365	25034
13.54990	26089
13.55617	28203
13.56242	29225
13.56867	26235
13.57493	26736
13.58118	24057
13.58743	23334
13.59370	24586
13.59995	23899
13.60620	23516
13.61247	22327
13.61872	24174
13.62497	24417
13.63123	22959
13.63748	23725
13.64373	23905
13.64998	24353
13.65625	22963
13.66250	23273
13.66875	23025
13.67502	24471
13.68127	22797
13.68752	25222
13.69378	22524
13.70003	23859
13.70628	23052
13.71255	22610
13.71880	23561
13.72505	24253
13.73132	23730
13.73757	23277
13.74382	22613
13.75008	23125
13.75633	22919
13.76258	23398
13.76885	22712
13.77510	22534
13.78135	23567
13.78762	22932
13.79387	23646
13.80012	23342
13.80638	25207
13.81263	27657
13.81888	26436
13.82515	25816
13.83140	25522
13.83765	25769
13.84392	30735
13.85017	31674
13.85642	33831
13.86268	32484
13.86893	25579
13.87518	24739
13.88143	22864
13.88770	23957
13.89395	25450
13.90020	24814
13.90647	27607
13.91272	26234
13.91897	24783
13.92523	26394
13.93148	26143
13.93773	25122
13.94400	26430
13.95025	24812
13.95650	24767
13.96277	25084
13.96902	25851
13.97527	27361
13.98153	30198
13.98778	28799
13.99403	29015
14.00030	30588
14.00655	26938
14.01280	26374
14.01907	25584
14.02532	23516
14.03157	24082
14.03783	23732
14.04408	24929
14.05033	25016
14.05660	28267
14.06285	33992
14.06910	42220
14.07537	44411
14.08162	46212
14.08787	35963
14.09412	34066
14.10038	34137
14.10663	30294
14.11288	27312
14.11915	28577
14.12540	30825
14.13165	28779
14.13792	29086
14.14417	25234
14.15042	27483
14.15668	25850
14.16293	25343
14.16918	27506
14.17545	28510
14.18170	27964
14.18795	27608
14.19422	28591
14.20047	26511
14.20672	31461
14.21298	44841
14.21923	83174
14.22548	132202
14.23175	160194
14.23800	140549
14.24425	93239
14.25052	52590
14.25677	36078
14.26302	30552
14.26928	29920
14.27553	28489
14.28178	30628
14.28805	30534
14.29430	36854
14.30055	38695
14.30682	39355
14.31307	34308
14.31932	33898
14.32557	33968
14.33183	34436
14.33808	33256
14.34433	28537
14.35060	26990
14.35685	26562
14.36310	27440
14.36937	24942
14.37562	25925
14.38187	26881
14.38813	26425
14.39438	24252
14.40063	25722
14.40690	23921
14.41315	23153
14.41940	24770
14.42567	25925
14.43192	25231
14.43817	25720
14.44443	25702
14.45068	24869
14.45693	26854
14.46320	26366
14.46945	28625
14.47570	31950
14.48197	48154
14.48822	131830
14.49447	565788
14.50073	2610706
14.50698	7605688
14.51323	1.299836E+07
14.51950	1.504918E+07
14.52575	1.21788E+07
14.53200	5558542
14.53825	1524276
14.54452	334406
14.55077	121244
14.55702	86192
14.56328	73741
14.56953	71014
14.57578	68808
14.58205	63550
14.58830	66088
14.59455	66808
14.60082	63672
14.60707	56991
14.61332	48474
14.61958	44038
14.62583	43974
14.63208	41818
14.63835	38547
14.64460	37728
14.65085	39995
14.65712	39900
14.66337	40190
14.66962	39095
14.67588	38871
14.68213	37634
14.68838	34815
14.69465	33181
14.70090	35865
14.70715	35998
14.71342	36905
14.71967	38099
14.72592	39242
14.73218	42909
14.73843	47618
14.74468	47222
14.75093	44705
14.75720	38861
14.76345	35511
14.76970	33670
14.77597	31629
14.78222	33030
14.78847	32711
14.79473	32938
14.80098	33249
14.80723	31645
14.81350	31276
14.81975	30747
14.82600	31093
14.83227	31027
14.83852	29208
14.84477	29326
14.85103	30923
14.85728	29411
14.86353	30076
14.86980	31026
14.87605	31898
14.88230	29691
14.88857	29724
14.89482	32025
14.90107	30306
14.90733	31219
14.91358	29622
14.91983	32012
14.92610	28447
14.93235	31586
14.93860	33447
14.94487	33646
14.95112	37092
14.95737	35381
14.96363	36406
14.96988	38482
14.97613	43571
14.98238	47748
14.98865	46881
14.99490	40793
15.00115	35388
15.00742	29949
15.01367	30378
15.01992	30210
15.02618	27764
15.03243	30974
15.03868	30344
15.04495	31654
15.05120	32118
15.05745	30053
15.06372	31490
15.06997	29719
15.07622	31931
15.08248	30564
15.08873	31980
15.09498	32242
15.10125	31130
15.10750	31153
15.11375	32521
15.12002	37520
15.12627	36817
15.13252	36487
15.13878	35514
15.14503	33865
15.15128	35495
15.15755	34912
15.16380	34018
15.17005	35073
15.17632	36032
15.18257	38153
15.18882	43562
15.19507	45013
15.20133	40452
15.20758	40158
15.21383	39380
15.22010	36581
15.22635	35017
15.23260	33766
15.23887	31797
15.24512	34196
15.25137	32278
15.25763	31583
15.26388	31677
15.27013	33209
15.27640	32360
15.28265	32520
15.28890	32539
15.29517	31678
15.30142	34831
15.30767	33826
15.31393	36275
15.32018	35547
15.32643	35430
15.33270	33994
15.33895	32994
15.34520	33179
15.35147	32131
15.35772	30590
15.36397	33133
15.37023	32074
15.37648	33336
15.38273	34166
15.38900	31411
15.39525	29618
15.40150	32198
15.40775	35257
15.41402	31113
15.42027	30225
15.42652	33333
15.43278	31964
15.43903	33349
15.44528	33918
15.45155	33381
15.45780	34394
15.46405	33102
15.47032	32364
15.47657	30718
15.48282	29706
15.48908	31115
15.49533	29914
15.50158	31354
15.50785	29254
15.51410	30922
15.52035	31268
15.52662	27193
15.53287	28944
15.53912	28915
15.54538	28830
15.55163	29302
15.55788	28018
15.56415	28245
15.57040	28093
15.57665	27399
15.58292	28604
15.58917	28673
15.59542	28526
15.60168	27924
15.60793	30219
15.61418	30399
15.62045	28404
15.62670	28703
15.63295	29491
15.63920	28241
15.64547	28364
15.65172	26046
15.65797	27717
15.66423	26429
15.67048	28608
15.67673	26686
15.68300	26379
15.68925	28568
15.69550	27828
15.70177	31343
15.70802	32122
15.71427	29099
15.72053	27054
15.72678	25424
15.73303	25514
15.73930	25895
15.74555	27577
15.75180	26645
15.75807	25864
15.76432	27646
15.77057	27012
15.77683	26580
15.78308	26694
15.78933	26675
15.79560	26989
15.80185	25987
15.80810	30487
15.81437	30598
15.82062	32020
15.82687	33348
15.83313	32887
15.83938	30437
15.84563	29021
15.85188	26350
15.85815	26815
15.86440	26050
15.87065	25924
15.87692	26460
15.88317	26426
15.88942	25417
15.89568	27840
15.90193	26710
15.90818	25711
15.91445	27174
15.92070	25423
15.92695	26048
15.93322	24878
15.93947	28012
15.94572	32739
15.95198	48029
15.95823	81201
15.96448	113002
15.97075	121933
15.97700	98625
15.98325	64965
15.98952	38519
15.99577	30165
16.00202	26502
16.00828	25958
16.01453	27472
16.02078	25813
16.02705	26858
16.03330	28535
16.03955	30006
16.04582	28316
16.05207	30267
16.05832	26959
16.06457	28941
16.07083	30102
16.07708	31101
16.08333	30990
16.08960	30650
16.09585	28793
16.10210	27409
16.10837	27092
16.11462	25760
16.12087	28419
16.12713	26898
16.13338	26430
16.13963	26346
16.14590	26481
16.15215	25528
16.15840	26877
16.16467	27328
16.17092	26891
16.17717	27207
16.18343	36244
16.18968	43778
16.19593	57574
16.20220	56614
16.20845	51676
16.21470	36940
16.22097	31321
16.22722	28766
16.23347	27862
16.23973	28224
16.24598	28628
16.25223	27824
16.25850	29313
16.26475	27428
16.27100	27223
16.27727	26675
16.28352	25430
16.28977	26685
16.29602	27301
16.30228	25658
16.30853	26089
16.31478	25673
16.32105	25777
16.32730	25569
16.33355	26203
16.33982	25772
16.34607	26581
16.35232	26156
16.35858	27367
16.36483	27833
16.37108	27127
16.37735	29838
16.38360	27916
16.38985	26377
16.39612	26613
16.40237	28090
16.40862	26546
16.41488	26793
16.42113	27874
16.42738	29229
16.43365	29460
16.43990	33896
16.44615	38405
16.45242	38555
16.45867	33970
16.46492	28729
16.47118	28397
16.47743	30756
16.48368	28663
16.48995	28927
16.49620	28668
16.50245	29585
16.50870	33627
16.51497	37547
16.52122	43265
16.52747	41820
16.53373	36935
16.53998	31345
16.54623	29154
16.55250	27473
16.55875	27849
16.56500	28672
16.57127	27472
16.57752	26439
16.58377	27125
16.59003	26885
16.59628	28165
16.60253	28348
16.60880	30235
16.61505	32055
16.62130	36783
16.62757	42273
16.63382	44677
16.64007	39852
16.64633	38040
16.65258	32942
16.65883	32137
16.66510	38407
16.67135	45528
16.67760	53949
16.68387	52425
16.69012	43943
16.69637	36677
16.70263	31314
16.70888	28854
16.71513	30435
16.72140	27187
16.72765	28381
16.73390	28808
16.74015	28344
16.74642	27142
16.75267	31398
16.75892	40939
16.76518	65846
16.77143	106030
16.77768	141918
16.78395	143481
16.79020	117378
16.79645	90327
16.80272	77930
16.80897	63703
16.81522	55705
16.82148	50803
16.82773	48398
16.83398	47236
16.84025	39879
16.84650	34068
16.85275	34459
16.85902	41965
16.86527	52324
16.87152	77019
16.87778	107141
16.88403	126996
16.89028	112520
16.89655	78847
16.90280	52552
16.90905	41365
16.91532	43630
16.92157	41096
16.92782	41504
16.93408	39071
16.94033	43792
16.94658	52792
16.95283	62388
16.95910	62782
16.96535	58200
16.97160	49928
16.97787	38815
16.98412	32848
16.99037	33191
16.99663	30908
17.00288	32184
17.00913	39958
17.01540	81939
17.02165	238290
17.02790	738459
17.03417	2087742
17.04042	4211352
17.04667	6092081
17.05293	5821570
17.05918	3778958
17.06543	1668354
17.07170	577674
17.07795	176654
17.08420	79527
17.09047	51122
17.09672	44413
17.10297	40343
17.10923	40783
17.11548	37581
17.12173	37895
17.12800	38547
17.13425	38771
17.14050	51990
17.14677	79881
17.15302	120559
17.15927	139737
17.16553	122177
17.17178	82317
17.17803	52543
17.18428	42774
17.19055	41089
17.19680	41450
17.20305	46679
17.20932	75739
17.21557	176842
17.22182	412665
17.22808	768112
17.23433	1003235
17.24058	907685
17.24685	527620
17.25310	233251
17.25935	90332
17.26562	49715
17.27187	37646
17.27812	35794
17.28438	33376
17.29063	35524
17.29688	36701
17.30315	38346
17.30940	39748
17.31565	38748
17.32192	36011
17.32817	30720
17.33442	31101
17.34068	28944
17.34693	28742
17.35318	27923
17.35945	28010
17.36570	28139
17.37195	29348
17.37822	30551
17.38447	30853
17.39072	35838
17.39697	37131
17.40323	35098
17.40948	33779
17.41573	31163
17.42200	29208
17.42825	30559
17.43450	39895
17.44077	57501
17.44702	65056
17.45327	61859
17.45953	54385
17.46578	38034
17.47203	32145
17.47830	28267
17.48455	27558
17.49080	28302
17.49707	34479
17.50332	46087
17.50957	70453
17.51583	92357
17.52208	97914
17.52833	82791
17.53460	57659
17.54085	36426
17.54710	27391
17.55337	24789
17.55962	25605
17.56587	27753
17.57213	29613
17.57838	31395
17.58463	27586
17.59090	25520
17.59715	25960
17.60340	26753
17.60967	25522
17.61592	25135
17.62217	25945
17.62842	23771
17.63468	24048
17.64093	24677
17.64718	23226
17.65345	23406
17.65970	22940
17.66595	24694
17.67222	25844
17.67847	25138
17.68472	22748
17.69098	24621
17.69723	24886
17.70348	22476
17.70975	22412
17.71600	23326
17.72225	24480
17.72852	22553
17.73477	24512
17.74102	23830
17.74728	24744
17.75353	24627
17.75978	25924
17.76605	25719
17.77230	25976
17.77855	24339
17.78482	25187
17.79107	26118
17.79732	32263
17.80358	40901
17.80983	43641
17.81608	42811
17.82235	39158
17.82860	42820
17.83485	68916
17.84110	107587
17.84737	137354
17.85362	134584
17.85987	96272
17.86613	65789
17.87238	48276
17.87863	39295
17.88490	35781
17.89115	36640
17.89740	34489
17.90367	34819
17.90992	34808
17.91617	34090
17.92243	31401
17.92868	29890
17.93493	28184
17.94120	27899
17.94745	28382
17.95370	28861
17.95997	27898
17.96622	27359
17.97247	28546
17.97873	28328
17.98498	28937
17.99123	29935
17.99750	28862
18.00375	27185
18.01000	25018
18.01627	24739
18.02252	26667
18.02877	25872
18.03503	25353
18.04128	25605
18.04753	25222
18.05378	25007
18.06005	26188
18.06630	25685
18.07255	22966
18.07882	24042
18.08507	25350
18.09132	23471
18.09758	25218
18.10383	23909
18.11008	27171
18.11635	35259
18.12260	58961
18.12885	109710
18.13512	190671
18.14137	258853
18.14762	222054
18.15388	136725
18.16013	70709
18.16638	39298
18.17265	29291
18.17890	26803
18.18515	25968
18.19142	27552
18.19767	24309
18.20392	24676
18.21018	26610
18.21643	25363
18.22268	26409
18.22895	24969
18.23520	25533
18.24145	24879
18.24772	25334
18.25397	25585
18.26022	27872
18.26648	28123
18.27273	27314
18.27898	27512
18.28523	27973
18.29150	26773
18.29775	28182
18.30400	26798
18.31027	26311
18.31652	25573
18.32277	25928
18.32903	24250
18.33528	24315
18.34153	23380
18.34780	23331
18.35405	24141
18.36030	23865
18.36657	24127
18.37282	23489
18.37907	22761
18.38533	23859
18.39158	23130
18.39783	22669
18.40410	23588
18.41035	24135
18.41660	22383
18.42287	23636
18.42912	24910
18.43537	22439
18.44163	23938
18.44788	23770
18.45413	23183
18.46040	22612
18.46665	22432
18.47290	22725
18.47917	24260
18.48542	24806
18.49167	23946
18.49792	24308
18.50418	23680
18.51043	25140
18.51668	23353
18.52295	24332
18.52920	24088
18.53545	22782
18.54172	23117
18.54797	22123
18.55422	24074
18.56048	23177
18.56673	23813
18.57298	23766
18.57925	23458
18.58550	22988
18.59175	24337
18.59802	22973
18.60427	24166
18.61052	23759
18.61678	23971
18.62303	24151
18.62928	23432
18.63555	22807
18.64180	24263
18.64805	25314
18.65432	22491
18.66057	23412
18.66682	23591
18.67308	23613
18.67933	24275
18.68558	22754
18.69185	21500
18.69810	24044
18.70435	22886
18.71060	24109
18.71687	22914
18.72312	23689
18.72937	23207
18.73563	23481
18.74188	23227
18.74813	23693
18.75440	22262
18.76065	25584
18.76690	24040
18.77317	26619
18.77942	25665
18.78567	26684
18.79193	24273
18.79818	25276
18.80443	23274
18.81070	23394
18.81695	23390
18.82320	25333
18.82947	25743
18.83572	28229
18.84197	28295
18.84823	27982
18.85448	29353
18.86073	33039
18.86700	47921
18.87325	76357
18.87950	103506
18.88577	136115
18.89202	166948
18.89827	165292
18.90453	128824
18.91078	82026
18.91703	48439
18.92330	42249
18.92955	54317
18.93580	73985
18.94205	84135
18.94832	79688
18.95457	59279
18.96082	39146
18.96708	28894
18.97333	25367
18.97958	23649
18.98585	25243
18.99210	23655
18.99835	24705
19.00462	25504
19.01087	25998
19.01712	24946
19.02338	24332
19.02963	24641
19.03588	25544
19.04215	26814
19.04840	25440
19.05465	25929
19.06092	25546
19.06717	22962
19.07342	23704
19.07968	23961
19.08593	23222
19.09218	23390
19.09845	25023
19.10470	24335
19.11095	23419
19.11722	24781
19.12347	23429
19.12972	23244
19.13598	21995
19.14223	22868
19.14848	24259
19.15473	23987
19.16100	23914
19.16725	26079
19.17350	22313
19.17977	23509
19.18602	24359
19.19227	22489
19.19853	22528
19.20478	23346
19.21103	23805
19.21730	24146
19.22355	23197
19.22980	23205
19.23607	24157
19.24232	23514
19.24857	22599
19.25483	21289
19.26108	23265
19.26733	22799
19.27360	21956
19.27985	21826
19.28610	23061
19.29237	24482
19.29862	22808
19.30487	23910
19.31113	23536
19.31738	23097
19.32363	22028
19.32990	23316
19.33615	22344
19.34240	23503
19.34867	24007
19.35492	21818
19.36117	23253
19.36743	22765
19.37368	23851
19.37993	25189
19.38618	22832
19.39245	24119
19.39870	24885
19.40495	23032
19.41122	24865
19.41747	22259
19.42372	22570
19.42998	22423
19.43623	23475
19.44248	23108
19.44875	22630
19.45500	23394
19.46125	23176
19.46752	26359
19.47377	25761
19.48002	25898
19.48628	25589
19.49253	26512
19.49878	29287
19.50505	34181
19.51130	38157
19.51755	34999
19.52382	30089
19.53007	27618
19.53632	23526
19.54258	23509
19.54883	22655
19.55508	22252
19.56135	24976
19.56760	23279
19.57385	23350
19.58012	23906
19.58637	24253
19.59262	23647
19.59887	22521
19.60513	21823
19.61138	21044
19.61763	23655
19.62390	22540
19.63015	24691
19.63640	23083
19.64267	21633
19.64892	22727
19.65517	21679
19.66143	22123
19.66768	23294
19.67393	22169
19.68020	23036
19.68645	21582
19.69270	24635
19.69897	25192
19.70522	28353
19.71147	27741
19.71773	28199
19.72398	23702
19.73023	23151
19.73650	22664
19.74275	23645
19.74900	23090
19.75527	24316
19.76152	23314
19.76777	22703
19.77403	24619
19.78028	22686
19.78653	21978
19.79280	22158
19.79905	22939
19.80530	23060
19.81157	23186
19.81782	22791
19.82407	23778
19.83032	23913
19.83658	23100
19.84283	23567
19.84908	23695
19.85535	21678
19.86160	22791
19.86785	22731
19.87412	21956
19.88037	22543
19.88662	24279
19.89288	23410
19.89913	28589
19.90538	49597
19.91165	109349
19.91790	244394
19.92415	415112
19.93042	462718
19.93667	339985
19.94292	176956
19.94918	75706
19.95543	41717
19.96168	32559
19.96795	28920
19.97420	29051
19.98045	28212
19.98672	27641
19.99297	26623
19.99922	26435
20.00548	28207
20.01173	26768
20.01798	26108
20.02425	26252
20.03050	25896
20.03675	24747
20.04300	24991
20.04927	25853
20.05552	25207
20.06177	24398
20.06803	23979
20.07428	25777
20.08053	25921
20.08680	24732
20.09305	24874
20.09930	24263
20.10557	24444
20.11182	24737
20.11807	24499
20.12433	26572
20.13058	26358
20.13683	26221
20.14310	26521
20.14935	26512
20.15560	26581
20.16187	28495
20.16812	30667
20.17437	34588
20.18063	45180
20.18688	56541
20.19313	59224
20.19940	52894
20.20565	42160
20.21190	36458
20.21817	44840
20.22442	57503
20.23067	76464
20.23693	79721
20.24318	72114
20.24943	51570
20.25570	35230
20.26195	27838
20.26820	25455
20.27445	24029
20.28072	26430
20.28697	25029
20.29322	25687
20.29948	24416
20.30573	24312
20.31198	24266
20.31825	25249
20.32450	25842
20.33075	26148
20.33702	24802
20.34327	24594
20.34952	24186
20.35578	27256
20.36203	29075
20.36828	31411
20.37455	30115
20.38080	27950
20.38705	26539
20.39332	24310
20.39957	26132
20.40582	24550
20.41208	24568
20.41833	24312
20.42458	25292
20.43085	24749
20.43710	26211
20.44335	24021
20.44962	24154
20.45587	24198
20.46212	23645
20.46838	25285
20.47463	24066
20.48088	23731
20.48713	23312
20.49340	23719
20.49965	24624
20.50590	24224
20.51217	24050
20.51842	24299
20.52467	25146
20.53093	25973
20.53718	24706
20.54343	24991
20.54970	25253
20.55595	24783
20.56220	23311
20.56847	24196
20.57472	23960
20.58097	26252
20.58723	24849
20.59348	23791
20.59973	27345
20.60600	23369
20.61225	24046
20.61850	24445
20.62477	23850
20.63102	24275
20.63727	23913
20.64353	25681
20.64978	25571
20.65603	22636
20.66230	24053
20.66855	24648
20.67480	25079
20.68107	24447
20.68732	24120
20.69357	24398
20.69982	24545
20.70608	25788
20.71233	24105
20.71858	24492
20.72485	25322
20.73110	24267
20.73735	24974
20.74362	23449
20.74987	24468
20.75612	24405
20.76238	26554
20.76863	26543
20.77488	30977
20.78115	36900
20.78740	37962
20.79365	36337
20.79992	32330
20.80617	28034
20.81242	25597
20.81868	25385
20.82493	23793
20.83118	24186
20.83745	24498
20.84370	24458
20.84995	24061
20.85622	26049
20.86247	23679
20.86872	25986
20.87498	26142
20.88123	22329
20.88748	25787
20.89375	24850
20.90000	25511
20.90625	24514
20.91252	25309
20.91877	24698
20.92502	23961
20.93127	24704
20.93753	25163
20.94378	25543
20.95003	24235
20.95630	26402
20.96255	24779
20.96880	25357
20.97507	24978
20.98132	24150
20.98757	24557
20.99383	23204
21.00008	23493
21.00633	23829
21.01260	24626
21.01885	26824
21.02510	28867
21.03137	30694
21.03762	31678
21.04387	30055
21.05013	27076
21.05638	24581
21.06263	23865
21.06890	25094
21.07515	27042
21.08140	23400
21.08767	24399
21.09392	23491
21.10017	25722
21.10643	24934
21.11268	29270
21.11893	29227
21.12520	28248
21.13145	27565
21.13770	24256
21.14395	23075
21.15022	24092
21.15647	24070
21.16272	24261
21.16898	24843
21.17523	24789
21.18148	24516
21.18775	24578
21.19400	25698
21.20025	24257
21.20652	24554
21.21277	23929
21.21902	25621
21.22528	24909
21.23153	24061
21.23778	24683
21.24405	24043
21.25030	26433
21.25655	26484
21.26282	24734
21.26907	25345
21.27532	25317
21.28158	23941
21.28783	27071
21.29408	24951
21.30035	26039
21.30660	25218
21.31285	26972
21.31912	25516
21.32537	23748
21.33162	25836
21.33788	23585
21.34413	26844
21.35038	27587
21.35663	26423
21.36290	26009
21.36915	27221
21.37540	26985
21.38167	28441
21.38792	27617
21.39417	29785
21.40043	33254
21.40668	39679
21.41293	47089
21.41920	62318
21.42545	70877
21.43170	70357
21.43797	57285
21.44422	41654
21.45047	31784
21.45673	28194
21.46298	24927
21.46923	26002
21.47550	24728
21.48175	25447
21.48800	27850
21.49427	25912
21.50052	25322
21.50677	25617
21.51303	25126
21.51928	24988
21.52553	26338
21.53180	25224
21.53805	25707
21.54430	25798
21.55057	25631
21.55682	24147
21.56307	26734
21.56933	26935
21.57558	27178
21.58183	26676
21.58808	25280
21.59435	25750
21.60060	26741
21.60685	24433
21.61312	24742
21.61937	25003
21.62562	26126
21.63188	24437
21.63813	25859
21.64438	24779
21.65065	25752
21.65690	24778
21.66315	26335
21.66942	25977
21.67567	27769
21.68192	27350
21.68818	25555
21.69443	24505
21.70068	24515
21.70695	25296
21.71320	25727
21.71945	27442
21.72572	26148
21.73197	25543
21.73822	24742
21.74448	25653
21.75073	24486
21.75698	26360
21.76325	28598
21.76950	29041
21.77575	33520
21.78202	37090
21.78827	34349
21.79452	32007
21.80077	31008
21.80703	28934
21.81328	26663
21.81953	25203
21.82580	24815
21.83205	24472
21.83830	27759
21.84457	26274
21.85082	26065
21.85707	25825
21.86333	28057
21.86958	27718
21.87583	28015
21.88210	25762
21.88835	24388
21.89460	26416
21.90087	26488
21.90712	26092
21.91337	26172
21.91963	26354
21.92588	26306
21.93213	26672
21.93840	28287
21.94465	26642
21.95090	27437
21.95717	30509
21.96342	35609
21.96967	36487
21.97593	36627
21.98218	32948
21.98843	30972
21.99470	26335
22.00095	27589
22.00720	27376
22.01345	28925
22.01972	25826
22.02597	27733
22.03222	26082
22.03848	25838
22.04473	28109
22.05098	27181
22.05725	26230
22.06350	25387
22.06975	26260
22.07602	26401
22.08227	27871
22.08852	26853
22.09478	24489
22.10103	25014
22.10728	27000
22.11355	25106
22.11980	26503
22.12605	26725
22.13232	27594
22.13857	27380
22.14482	26124
22.15108	25961
22.15733	28048
22.16358	25138
22.16985	26106
22.17610	27332
22.18235	27320
22.18862	25654
22.19487	28247
22.20112	25876
22.20738	26292
22.21363	24415
22.21988	25719
22.22615	28186
22.23240	25212
22.23865	26621
22.24490	26083
22.25117	26333
22.25742	26375
22.26367	28484
22.26993	28527
22.27618	25279
22.28243	28573
22.28870	27144
22.29495	27318
22.30120	25496
22.30747	27393
22.31372	26906
22.31997	26828
22.32623	26813
22.33248	25642
22.33873	26713
22.34500	30152
22.35125	27488
22.35750	31298
22.36377	32134
22.37002	33247
22.37627	29080
22.38253	29257
22.38878	27302
22.39503	27495
22.40130	27017
22.40755	27760
22.41380	26283
22.42007	27987
22.42632	26733
22.43257	28250
22.43883	27621
22.44508	27219
22.45133	29834
22.45758	28207
22.46385	27723
22.47010	30164
22.47635	30374
22.48262	28530
22.48887	26902
22.49512	27265
22.50138	26905
22.50763	25674
22.51388	27523
22.52015	30667
22.52640	38508
22.53265	55298
22.53892	76715
22.54517	93605
22.55142	85683
22.55768	78756
22.56393	60333
22.57018	49954
22.57645	41476
22.58270	36949
22.58895	31907
22.59522	29172
22.60147	28668
22.60772	29176
22.61398	27311
22.62023	29782
22.62648	31966
22.63275	34276
22.63900	42228
22.64525	43509
22.65152	43663
22.65777	44548
22.66402	50356
22.67028	52051
22.67653	52012
22.68278	43083
22.68903	35526
22.69530	29767
22.70155	30346
22.70780	30352
22.71407	30681
22.72032	36445
22.72657	35709
22.73283	32509
22.73908	33342
22.74533	31364
22.75160	28313
22.75785	29846
22.76410	29226
22.77037	28150
22.77662	32251
22.78287	39751
22.78913	55148
22.79538	72576
22.80163	89191
22.80790	90487
22.81415	69172
22.82040	51766
22.82667	36902
22.83292	32360
22.83917	31252
22.84543	32025
22.85168	31202
22.85793	31226
22.86420	32123
22.87045	29540
22.87670	30304
22.88297	29397
22.88922	30901
22.89547	31531
22.90172	31349
22.90798	30473
22.91423	31697
22.92048	31043
22.92675	32074
22.93300	31194
22.93925	29208
22.94552	30263
22.95177	31005
22.95802	29607
22.96428	30259
22.97053	31010
22.97678	29222
22.98305	29434
22.98930	29216
22.99555	32001
23.00182	28554
23.00807	29521
23.01432	30602
23.02058	29100
23.02683	30590
23.03308	30914
23.03935	28688
23.04560	30966
23.05185	30748
23.05812	29571
23.06437	31926
23.07062	34483
23.07688	35404
23.08313	34538
23.08938	33007
23.09565	32895
23.10190	31264
23.10815	30827
23.11442	29697
23.12067	30160
23.12692	30629
23.13317	30544
23.13943	30319
23.14568	29952
23.15193	31085
23.15820	30183
23.16445	29447
23.17070	31181
23.17697	28828
23.18322	29427
23.18947	30431
23.19573	31432
23.20198	31241
23.20823	30090
23.21450	29068
23.22075	29134
23.22700	30806
23.23327	29013
23.23952	30284
23.24577	30816
23.25203	29114
23.25828	30001
23.26453	29883
23.27080	29993
23.27705	30869
23.28330	31643
23.28957	29872
23.29582	33877
23.30207	32194
23.30833	32493
23.31458	30147
23.32083	32907
23.32710	31330
23.33335	31191
23.33960	31246
23.34585	31322
23.35212	29654
23.35837	29177
23.36462	30065
23.37088	30047
23.37713	31913
23.38338	31959
23.38965	30332
23.39590	33258
23.40215	33691
23.40842	34571
23.41467	32709
23.42092	34065
23.42718	34353
23.43343	32158
23.43968	33317
23.44595	30786
23.45220	31506
23.45845	33533
23.46472	34201
23.47097	31868
23.47722	33950
23.48348	30657
23.48973	31727
23.49598	30447
23.50225	32639
23.50850	31045
23.51475	31610
23.52102	30918
23.52727	32756
23.53352	30710
23.53978	29395
23.54603	32644
23.55228	31198
23.55855	32760
23.56480	33569
23.57105	35893
23.57730	40907
23.58357	46905
23.58982	55077
23.59607	59257
23.60233	58199
23.60858	53549
23.61483	42893
23.62110	36953
23.62735	34892
23.63360	34218
23.63987	34782
23.64612	33789
23.65237	32007
23.65863	33452
23.66488	30482
23.67113	33700
23.67740	33191
23.68365	34491
23.68990	34260
23.69617	32898
23.70242	33417
23.70867	32436
23.71493	31846
23.72118	32428
23.72743	31279
23.73370	33140
23.73995	33445
23.74620	32944
23.75247	31748
23.75872	33626
23.76497	32471
23.77123	33290
23.77748	32378
23.78373	33618
23.78998	34434
23.79625	33357
23.80250	33538
23.80875	34085
23.81502	34184
23.82127	32176
23.82752	33054
23.83378	32964
23.84003	33238
23.84628	33936
23.85255	32858
23.85880	33633
23.86505	35261
23.87132	35069
23.87757	34449
23.88382	32859
23.89008	32911
23.89633	35259
23.90258	34663
23.90885	33572
23.91510	33543
23.92135	35910
23.92762	36209
23.93387	35610
23.94012	42673
23.94638	51997
23.95263	77843
23.95888	117523
23.96515	145620
23.97140	135971
23.97765	101723
23.98392	76031
23.99017	56842
23.99642	46512
24.00267	44413
24.00893	40896
24.01518	38608
24.02143	37191
24.02770	36361
24.03395	37630
24.04020	37708
24.04647	39196
24.05272	44544
24.05897	55726
24.06523	64003
24.07148	66301
24.07773	62198
24.08400	52154
24.09025	45159
24.09650	41053
24.10277	43302
24.10902	41636
24.11527	42262
24.12153	41237
24.12778	42315
24.13403	38545
24.14030	37355
24.14655	37325
24.15280	38718
24.15907	38847
24.16532	38319
24.17157	39092
24.17783	38828
24.18408	42754
24.19033	55905
24.19660	104797
24.20285	217534
24.20910	388464
24.21537	526725
24.22162	541171
24.22787	388303
24.23412	234888
24.24038	126905
24.24663	80963
24.25288	62528
24.25915	54657
24.26540	51631
24.27165	48019
24.27792	45366
24.28417	45540
24.29042	45133
24.29668	45197
24.30293	48421
24.30918	43184
24.31545	43223
24.32170	45421
24.32795	43412
24.33422	44198
24.34047	45609
24.34672	47106
24.35298	50823
24.35923	48942
24.36548	45728
24.37175	43390
24.37800	41978
24.38425	45518
24.39052	42707
24.39677	43476
24.40302	41382
24.40928	42557
24.41553	43731
24.42178	46893
24.42805	47006
24.43430	45107
24.44055	43059
24.44680	43200
24.45307	44034
24.45932	44100
24.46557	42413
24.47183	40849
24.47808	41664
24.48433	42185
24.49060	42439
24.49685	43462
24.50310	43985
24.50937	43884
24.51562	45774
24.52187	45132
24.52813	43067
24.53438	44429
24.54063	41595
24.54690	41891
24.55315	44927
24.55940	44632
24.56567	47685
24.57192	49562
24.57817	52335
24.58443	55701
24.59068	51635
24.59693	49182
24.60320	45227
24.60945	45076
24.61570	45053
24.62197	44856
24.62822	44480
24.63447	45661
24.64073	46602
24.64698	46574
24.65323	45772
24.65948	42464
24.66575	42718
24.67200	45150
24.67825	43679
24.68452	42839
24.69077	43321
24.69702	44076
24.70328	43442
24.70953	43646
24.71578	42886
24.72205	42717
24.72830	43020
24.73455	43945
24.74082	45225
24.74707	46590
24.75332	42523
24.75958	44264
24.76583	44683
24.77208	43807
24.77835	43358
24.78460	42424
24.79085	43287
24.79712	43768
24.80337	43498
24.80962	42654
24.81588	42692
24.82213	43711
24.82838	43795
24.83465	46320
24.84090	43597
24.84715	44973
24.85342	42779
24.85967	45617
24.86592	42846
24.87218	44791
24.87843	42713
24.88468	46508
24.89093	47763
24.89720	48175
24.90345	45330
24.90970	46578
24.91597	44351
24.92222	45862
24.92847	46096
24.93473	43921
24.94098	48295
24.94723	46481
24.95350	46752
24.95975	47388
24.96600	45704
24.97227	45367
24.97852	44885
24.98477	45800
24.99103	44601
24.99728	46666
25.00353	45566
25.00980	49438
25.01605	47596
25.02230	48964
25.02857	46307
25.03482	45442
25.04107	46176
25.04733	46472
25.05358	45740
25.05983	44768
25.06610	46647
25.07235	48111
25.07860	47341
25.08487	46380
25.09112	47129
25.09737	46514
25.10362	48166
25.10988	47630
25.11613	47267
25.12238	46983
25.12865	46163
25.13490	45716
25.14115	46253
25.14742	47777
25.15367	47608
25.15992	47385
25.16618	48520
25.17243	49190
25.17868	47844
25.18495	50059
25.19120	49002
25.19745	48096
25.20372	46480
25.20997	48898
25.21622	49261
25.22248	45185
25.22873	47632
25.23498	46291
25.24125	49131
25.24750	49657
25.25375	48259
25.26002	48346
25.26627	47446
25.27252	46856
25.27878	51135
25.28503	46554
25.29128	49231
25.29755	50225
25.30380	49248
25.31005	47970
25.31632	49396
25.32257	47594
25.32882	51067
25.33507	48629
25.34133	50070
25.34758	50789
25.35383	50203
25.36010	49221
25.36635	50699
25.37260	49761
25.37887	53627
25.38512	53614
25.39137	65405
25.39763	80539
25.40388	89840
25.41013	95851
25.41640	81861
25.42265	70489
25.42890	60449
25.43517	56405
25.44142	54144
25.44767	52312
25.45393	51428
25.46018	53973
25.46643	55511
25.47270	56873
25.47895	54785
25.48520	53276
25.49147	54744
25.49772	55045
25.50397	54574
25.51023	53587
25.51648	51894
25.52273	56384
25.52900	55508
25.53525	55974
25.54150	52166
25.54775	53025
25.55402	55255
25.56027	56487
25.56652	53656
25.57278	54022
25.57903	53064
25.58528	51967
25.59155	55589
25.59780	56934
25.60405	56023
25.61032	54238
25.61657	55786
25.62282	56681
25.62908	57115
25.63533	56563
25.64158	53581
25.64785	56191
25.65410	53566
25.66035	53782
25.66662	54310
25.67287	54305
25.67912	55866
25.68538	55303
25.69163	56712
25.69788	54487
25.70415	55350
25.71040	55165
25.71665	56013
25.72292	57264
25.72917	55339
25.73542	57932
25.74168	56044
25.74793	57712
25.75418	56158
25.76045	55668
25.76670	54627
25.77295	57091
25.77920	58157
25.78547	57261
25.79172	56912
25.79797	59490
25.80423	55785
25.81048	56716
25.81673	57281
25.82300	56115
25.82925	57616
25.83550	56098
25.84177	57520
25.84802	58699
25.85427	57409
25.86053	55777
25.86678	59176
25.87303	58222
25.87930	58310
25.88555	59999
25.89180	59533
25.89807	60898
25.90432	59921
25.91057	60217
25.91683	59344
25.92308	59698
25.92933	59972
25.93560	59923
25.94185	60388
25.94810	56694
25.95437	59700
25.96062	60920
25.96687	61397
25.97313	59482
25.97938	59232
25.98563	60228
25.99188	59287
25.99815	62695
26.00440	62296
26.01065	59889
26.01692	61890
26.02317	62329
26.02942	57371
26.03568	63929
26.04193	62075
26.04818	60999
26.05445	61578
26.06070	63825
26.06695	61641
26.07322	64282
26.07947	60977
26.08572	63535
26.09198	62253
26.09823	62262
26.10448	62514
26.11075	62627
26.11700	64971
26.12325	62792
26.12952	64475
26.13577	65496
26.14202	63953
26.14828	63483
26.15453	66124
26.16078	63402
26.16705	62556
26.17330	64361
26.17955	65302
26.18582	67108
26.19207	62753
26.19832	67040
26.20458	64393
26.21083	66371
26.21708	65606
26.22333	65564
26.22960	68509
26.23585	65891
26.24210	67370
26.24837	65417
26.25462	68705
26.26087	66975
26.26713	67650
26.27338	69939
26.27963	66282
26.28590	67643
26.29215	67410
26.29840	68696
26.30467	68280
26.31092	67106
26.31717	67247
26.32343	66728
26.32968	69769
26.33593	68102
26.34220	68847
26.34845	70554
26.35470	71963
26.36097	67328
26.36722	69833
26.37347	69971
26.37973	67183
26.38598	71757
26.39223	69030
26.39850	69137
26.40475	69606
26.41100	71837
26.41727	68369
26.42352	72221
26.42977	69913
26.43602	71291
26.44228	73924
26.44853	72511
26.45478	71116
26.46105	73492
26.46730	74460
26.47355	72759
26.47982	76003
26.48607	73852
26.49232	74107
26.49858	73206
26.50483	72276
26.51108	71919
26.51735	69450
26.52360	76697
26.52985	74493
26.53612	73124
26.54237	74443
26.54862	73736
26.55488	75106
26.56113	75793
26.56738	78849
26.57365	74066
26.57990	74304
26.58615	72685
26.59242	78772
26.59867	78234
26.60492	79116
26.61118	76426
26.61743	79729
26.62368	78534
26.62995	78264
26.63620	76275
26.64245	81543
26.64870	93336
26.65497	100709
26.66122	108798
26.66747	116637
26.67373	104189
26.67998	92118
26.68623	85422
26.69250	83790
26.69875	82216
26.70500	83119
26.71127	83560
26.71752	83822
26.72377	81373
26.73003	81739
26.73628	80733
26.74253	85344
26.74880	82414
26.75505	85219
26.76130	83825
26.76757	81810
26.77382	84048
26.78007	83245
26.78633	82592
26.79258	85864
26.79883	81597
26.80510	83167
26.81135	82537
26.81760	84718
26.82387	84441
26.83012	83594
26.83637	87226
26.84263	81852
26.84888	84997
26.85513	85603
26.86140	84724
26.86765	89372
26.87390	82169
26.88015	88143
26.88642	86419
26.89267	88175
26.89892	98170
26.90518	107956
26.91143	119064
26.91768	122745
26.92395	120375
26.93020	108980
26.93645	94616
26.94272	94884
26.94897	91429
26.95522	93273
26.96148	90673
26.96773	91447
26.97398	90479
26.98025	91163
26.98650	92957
26.99275	90986
26.99902	95261
27.00527	94349
27.01152	91990
27.01778	92451
27.02403	95157
27.03028	95395
27.03655	91803
27.04280	93240
27.04905	91952
27.05532	92959
27.06157	93228
27.06782	94890
27.07408	94368
27.08033	94132
27.08658	97263
27.09283	94211
27.09910	90854
27.10535	94408
27.11160	97479
27.11787	95121
27.12412	96593
27.13037	100510
27.13663	98242
27.14288	94790
27.14913	95252
27.15540	98582
27.16165	102358
27.16790	97563
27.17417	100147
27.18042	100548
27.18667	103593
27.19293	101920
27.19918	104315
27.20543	96986
27.21170	105819
27.21795	102089
27.22420	104420
27.23047	103665
27.23672	100944
27.24297	106242
27.24923	105869
27.25548	106911
27.26173	106081
27.26800	104185
27.27425	104946
27.28050	103079
27.28677	109569
27.29302	109096
27.29927	109245
27.30552	104903
27.31178	104538
27.31803	109251
27.32428	105739
27.33055	109586
27.33680	103760
27.34305	106948
27.34932	107427
27.35557	105298
27.36182	108170
27.36808	105626
27.37433	106419
27.38058	106159
27.38685	107892
27.39310	112857
27.39935	104465
27.40562	109890
27.41187	112764
27.41812	108731
27.42438	108362
27.43063	110117
27.43688	113198
27.44315	109256
27.44940	110179
27.45565	110288
27.46192	114073
27.46817	113689
27.47442	113731
27.48068	112762
27.48693	107407
27.49318	112540
27.49945	113132
27.50570	113849
27.51195	116996
27.51822	113479
27.52447	118623
27.53072	116713
27.53697	118340
27.54323	114235
27.54948	114448
27.55573	118322
27.56200	116101
27.56825	116043
27.57450	114573
27.58077	121835
27.58702	118231
27.59327	118110
27.59953	117283
27.60578	117581
27.61203	117505
27.61830	120268
27.62455	117698
27.63080	120703
27.63707	116546
27.64332	119148
27.64957	121903
27.65583	118911
27.66208	119917
27.66833	121706
27.67460	125788
27.68085	120958
27.68710	123290
27.69337	122853
27.69962	126685
27.70587	122684
27.71213	126356
27.71838	123066
27.72463	123468
27.73090	124746
27.73715	122386
27.74340	121450
27.74965	122014
27.75592	123217
27.76217	121725
27.76842	123675
27.77468	123943
27.78093	128870
27.78718	124019
27.79345	126395
27.79970	128514
27.80595	127940
27.81222	130785
27.81847	127870
27.82472	126433
27.83098	127704
27.83723	129801
27.84348	131465
27.84975	139394
27.85600	142937
27.86225	145624
27.86852	142116
27.87477	139869
27.88102	137161
27.88728	129166
27.89353	130409
27.89978	132858
27.90605	127117
27.91230	129397
27.91855	130633
27.92482	131832
27.93107	131717
27.93732	135238
27.94358	133046
27.94983	132508
27.95608	130164
27.96233	132111
27.96860	129012
27.97485	130681
27.98110	136133
27.98737	134129
27.99362	132960
27.99987	134878
28.00613	128901
28.01238	133506
28.01863	133813
28.02490	132652
28.03115	134991
28.03740	137125
28.04367	136548
28.04992	133427
28.05617	134494
28.06243	135069
28.06868	134237
28.07493	140133
28.08120	133765
28.08745	136810
28.09370	134304
28.09997	134453
28.10622	137095
28.11247	135305
28.11873	141445
28.12498	137543
28.13123	139278
28.13750	136962
28.14375	145976
28.15000	137138
28.15627	139759
28.16252	138301
28.16877	141724
28.17503	138859
28.18128	140323
28.18753	136512
28.19378	146400
28.20005	142749
28.20630	145311
28.21255	143789
28.21882	146990
28.22507	146551
28.23132	151473
28.23758	154887
28.24383	161589
28.25008	161957
28.25635	166393
28.26260	167965
28.26885	167047
28.27512	175793
28.28137	187237
28.28762	187064
28.29388	185278
28.30013	199144
28.30638	211290
28.31265	217716
28.31890	215353
28.32515	212225
28.33142	220144
28.33767	220658
28.34392	219595
28.35018	219649
28.35643	233867
28.36268	231980
28.36895	230922
28.37520	225495
28.38145	226717
28.38772	209418
28.39397	207721
28.40022	210235
28.40647	205249
28.41273	193353
28.41898	197612
28.42523	194117
28.43150	189517
28.43775	177463
28.44400	172358
28.45027	173253
28.45652	164576
28.46277	165957
28.46903	164063
28.47528	164638
28.48153	159692
28.48780	159509
28.49405	159063
28.50030	155203
28.50657	157574
28.51282	155448
28.51907	155587
28.52533	153811
28.53158	152750
28.53783	150494
28.54410	154969
28.55035	155453
28.55660	154226
28.56287	156194
28.56912	157596
28.57537	153227
28.58163	151955
28.58788	155252
28.59413	152182
28.60040	153469
28.60665	156251
28.61290	151558
28.61917	152737
28.62542	150847
28.63167	151020
28.63792	153081
28.64418	145619
28.65043	148163
28.65668	152450
28.66295	147524
28.66920	147389
28.67545	152200
28.68172	150420
28.68797	150389
28.69422	145631
28.70048	151656
28.70673	155102
28.71298	148989
28.71925	148225
28.72550	151104
28.73175	153038
28.73802	146903
28.74427	143900
28.75052	151801
28.75678	151216
28.76303	151331
28.76928	150560
28.77555	145374
28.78180	151298
28.78805	149895
28.79432	146542
28.80057	148929
28.80682	148911
28.81308	156965
28.81933	154780
28.82558	148498
28.83185	149905
28.83810	154456
28.84435	155496
28.85060	154276
28.85687	152758
28.86312	151751
28.86937	153635
28.87563	150117
28.88188	148856
28.88813	152710
28.89440	154523
28.90065	146786
28.90690	149743
28.91317	152849
28.91942	147356
28.92567	145033
28.93193	148403
28.93818	154006
28.94443	152760
28.95070	150226
28.95695	152007
28.96320	151038
28.96947	149876
28.97572	151350
28.98197	149366
28.98823	147301
28.99448	147389
29.00073	150246
29.00700	148403
29.01325	148212
29.01950	151438
29.02577	147449
29.03202	150982
29.03827	147853
29.04453	151141
29.05078	147634
29.05703	149509
29.06330	143869
29.06955	149817
29.07580	145423
29.08205	146992
29.08832	147161
29.09457	146563
29.10082	147575
29.10708	148567
29.11333	151471
29.11958	147234
29.12585	146362
29.13210	149565
29.13835	147126
29.14462	149506
29.15087	148365
29.15712	152014
29.16338	147419
29.16963	153033
29.17588	142290
29.18215	143531
29.18840	152065
29.19465	151430
29.20092	143878
29.20717	148735
29.21342	148860
29.21968	146313
29.22593	151573
29.23218	153322
29.23845	150083
29.24470	152705
29.25095	150753
29.25722	146910
29.26347	147275
29.26972	149038
29.27598	147398
29.28223	150705
29.28848	148887
29.29473	151003
29.30100	149261
29.30725	148403
29.31350	146288
29.31977	147401
29.32602	147377
29.33227	146765
29.33853	146117
29.34478	149298
29.35103	149051
29.35730	150304
29.36355	149403
29.36980	145815
29.37607	142762
29.38232	146473
29.38857	150318
29.39483	148116
29.40108	146587
29.40733	147643
29.41360	147406
29.41985	150577
29.42610	148967
29.43237	148118
29.43862	147230
29.44487	148421
29.45113	147381
29.45738	147612
29.46363	148700
29.46990	147571
29.47615	150429
29.48240	143372
29.48867	142996
29.49492	150716
29.50117	151252
29.50743	150523
29.51368	148337
29.51993	145869
29.52618	147152
29.53245	150057
29.53870	149748
29.54495	146926
29.55122	146100
29.55747	148656
29.56372	150195
29.56998	142158
29.57623	148995
29.58248	145637
29.58875	143848
29.59500	147021
29.60125	145118
29.60752	149431
29.61377	145926
29.62002	148130
29.62628	149171
29.63253	146286
29.63878	144004
29.64505	151080
29.65130	147203
29.65755	151448
29.66382	147177
29.67007	147635
29.67632	145260
29.68258	145669
29.68883	147373
29.69508	147449
29.70135	146426
29.70760	146120
29.71385	143453
29.72012	143322
29.72637	146609
29.73262	143249
29.73887	146461
29.74513	145771
29.75138	144574
29.75763	144012
29.76390	146601
29.77015	148330
29.77640	143318
29.78267	144222
29.78892	145203
29.79517	146694
29.80143	143691
29.80768	143540
29.81393	144940
29.82020	145854
29.82645	147054
29.83270	145176
29.83897	145523
29.84522	141722
29.85147	150904
29.85773	143687
29.86398	142827
29.87023	146390
29.87650	150803
29.88275	146171
29.88900	145028
29.89527	141936
29.90152	146861
29.90777	145919
29.91403	144609
29.92028	146876
29.92653	152207
29.93280	146765
29.93905	142162
29.94530	143171
29.95155	142482
29.95782	142484
29.96407	148442
29.97032	142492
29.97658	145273
29.98283	143617
29.98908	143266
29.99535	143199
30.00160	142095
30.00785	148417
30.01412	145664
30.02037	145438
30.02662	143499
30.03288	147694
30.03913	143470
30.04538	144627
30.05165	143290
30.05790	144804
30.06415	142477
30.07042	143668
30.07667	144229
30.08292	143733
30.08918	146359
30.09543	145368
30.10168	145555
30.10795	143940
30.11420	143145
30.12045	147656
30.12672	141259
30.13297	144998
30.13922	144853
30.14548	141570
30.15173	143650
30.15798	144240
30.16425	146441
30.17050	142180
30.17675	147964
30.18300	147514
30.18927	144869
30.19552	142610
30.20177	144567
30.20803	146002
30.21428	143943
30.22053	144250
30.22680	142295
30.23305	143675
30.23930	144690
30.24557	145030
30.25182	143317
30.25807	148182
30.26433	144604
30.27058	142539
30.27683	145901
30.28310	145090
30.28935	144532
30.29560	146258
30.30187	141820
30.30812	142212
30.31437	141659
30.32063	139651
30.32688	142784
30.33313	145344
30.33940	143279
30.34565	143383
30.35190	147064
30.35817	141541
30.36442	144113
30.37067	148122
30.37693	142713
30.38318	141709
30.38943	144955
30.39568	144425
30.40195	140930
30.40820	148166
30.41445	141684
30.42072	141001
30.42697	145390
30.43322	145625
30.43948	141272
30.44573	142411
30.45198	143596
30.45825	138533
30.46450	141807
30.47075	141753
30.47702	139908
30.48327	143165
30.48952	146354
30.49578	141456
30.50203	140214
30.50828	143481
30.51455	145337
30.52080	143172
30.52705	143524
30.53332	141423
30.53957	144566
30.54582	139856
30.55208	141535
30.55833	142125
30.56458	144886
30.57085	142617
30.57710	142452
30.58335	142246
30.58962	146088
30.59587	145537
30.60212	143420
30.60837	144450
30.61463	139859
30.62088	144492
30.62713	146023
30.63340	146703
30.63965	142457
30.64590	140616
30.65217	141818
30.65842	141755
30.66467	143626
30.67093	142045
30.67718	143834
30.68343	137712
30.68970	141905
30.69595	143618
30.70220	144093
30.70847	143964
30.71472	137491
30.72097	142832
30.72723	143699
30.73348	140765
30.73973	140984
30.74600	141639
30.75225	140755
30.75850	139974
30.76477	144984
30.77102	138739
30.77727	140502
30.78353	138345
30.78978	144195
30.79603	141015
30.80230	144087
30.80855	141840
30.81480	146502
30.82107	141204
30.82732	139117
30.83357	143959
30.83982	141875
30.84608	144158
30.85233	141935
30.85858	140276
30.86485	144358
30.87110	141145
30.87735	145822
30.88362	145354
30.88987	141922
30.89612	142877
30.90238	140519
30.90863	141107
30.91488	141913
30.92115	144229
30.92740	140511
30.93365	139411
30.93992	141952
30.94617	143328
30.95242	138280
30.95868	144470
30.96493	135812
30.97118	142537
30.97745	139327
30.98370	142014
30.98995	143668
30.99622	141753
31.00247	142122
31.00872	142842
31.01498	148997
31.02123	137797
31.02748	142063
31.03375	145179
31.04000	141245
31.04625	140324
31.05250	144747
31.05877	138473
31.06502	141659
31.07127	145144
31.07753	142847
31.08378	141554
31.09003	140834
31.09630	142624
31.10255	139387
31.10880	146280
31.11507	144094
31.12132	137588
31.12757	140312
31.13383	138144
31.14008	141759
31.14633	144683
31.15260	142753
31.15885	140283
31.16510	140303
31.17137	137918
31.17762	142254
31.18387	140216
31.19013	141448
31.19638	140881
31.20263	141224
31.20890	137559
31.21515	142055
31.22140	140175
31.22767	140752
31.23392	142197
31.24017	138320
31.24643	141362
31.25268	142214
31.25893	141684
31.26520	138675
31.27145	137723
31.27770	143403
31.28395	140712
31.29022	140669
31.29647	138070
31.30272	137935
31.30898	137212
31.31523	145183
31.32148	141190
31.32775	138578
31.33400	137764
31.34025	140191
31.34652	143874
31.35277	137295
31.35902	143427
31.36528	143178
31.37153	142119
31.37778	141918
31.38405	140224
31.39030	142154
31.39655	141212
31.40282	139596
31.40907	138159
31.41532	143454
31.42158	136572
31.42783	141299
31.43408	143490
31.44035	141156
31.44660	143936
31.45285	137923
31.45912	137242
31.46537	140736
31.47162	137583
31.47788	141088
31.48413	141901
31.49038	138094
31.49663	142462
31.50290	141618
31.50915	138756
31.51540	139894
31.52167	141862
31.52792	140590
31.53417	137908
31.54043	138944
31.54668	139229
31.55293	139510
31.55920	141162
31.56545	141260
31.57170	134969
31.57797	136755
31.58422	141966
31.59047	139269
31.59673	148128
31.60298	139062
31.60923	135555
31.61550	139352
31.62175	139785
31.62800	140110
31.63427	136282
31.64052	138441
31.64677	134957
31.65303	136644
31.65928	139071
31.66553	140413
31.67180	143053
31.67805	138852
31.68430	137838
31.69057	140523
31.69682	137892
31.70307	141732
31.70933	140591
31.71558	139220
31.72183	136258
31.72808	138811
31.73435	136291
31.74060	141381
31.74685	134643
31.75312	145243
31.75937	139904
31.76562	141997
31.77188	137757
31.77813	134724
31.78438	140120
31.79065	140912
31.79690	138541
31.80315	136539
31.80942	134058
31.81567	140181
31.82192	138703
31.82818	135452
31.83443	141541
31.84068	137075
31.84695	141044
31.85320	134065
31.85945	135654
31.86572	137823
31.87197	137449
31.87822	138737
31.88448	139175
31.89073	139786
31.89698	137843
31.90325	138921
31.90950	136163
31.91575	140008
31.92202	142108
31.92827	137194
31.93452	138091
31.94077	137394
31.94703	137790
31.95328	134086
31.95953	138268
31.96580	136801
31.97205	135660
31.97830	136607
31.98457	137776
31.99082	137535
31.99707	131891
32.00333	135855
32.00958	136572
32.01583	138291
32.02210	136425
32.02835	137279
32.03460	140376
32.04087	132835
32.04712	137944
32.05337	136342
32.05963	138220
32.06588	134744
32.07213	133779
32.07840	137563
32.08465	138437
32.09090	133236
32.09717	135957
32.10342	138116
32.10967	140599
32.11593	137709
32.12218	137186
32.12843	138888
32.13470	135762
32.14095	135576
32.14720	134989
32.15347	137874
32.15972	141003
32.16597	137858
32.17222	135551
32.17848	135602
32.18473	136871
32.19098	139684
32.19725	137373
32.20350	132894
32.20975	138153
32.21602	134545
32.22227	135629
32.22852	136998
32.23478	138491
32.24103	135992
32.24728	133652
32.25355	135842
32.25980	136468
32.26605	132898
32.27232	137887
32.27857	134877
32.28482	140660
32.29108	135388
32.29733	135126
32.30358	134491
32.30985	133754
32.31610	134096
32.32235	135581
32.32862	137473
32.33487	136139
32.34112	134718
32.34738	133394
32.35363	135105
32.35988	132255
32.36615	138000
32.37240	134265
32.37865	138102
32.38490	135196
32.39117	133325
32.39742	137078
32.40367	139662
32.40993	134401
32.41618	138465
32.42243	134448
32.42870	139343
32.43495	133075
32.44120	133105
32.44747	136425
32.45372	140014
32.45997	133864
32.46623	132966
32.47248	137112
32.47873	135695
32.48500	131297
32.49125	135109
32.49750	138176
32.50377	140067
32.51002	133063
32.51627	135411
32.52253	139334
32.52878	135807
32.53503	137059
32.54130	133678
32.54755	134707
32.55380	134534
32.56007	135654
32.56632	137819
32.57257	138214
32.57883	136812
32.58508	133735
32.59133	137584
32.59758	135715
32.60385	135576
32.61010	135039
32.61635	135449
32.62262	136660
32.62887	134876
32.63512	135688
32.64138	134054
32.64763	134116
32.65388	136924
32.66015	138681
32.66640	134418
32.67265	136824
32.67892	131173
32.68517	134652
32.69142	133911
32.69768	136098
32.70393	135151
32.71018	137331
32.71645	131175
32.72270	137834
32.72895	134323
32.73522	132994
32.74147	134607
32.74772	131560
32.75398	132085
32.76023	135829
32.76648	134546
32.77275	133073
32.77900	136461
32.78525	135434
32.79152	135600
32.79777	135561
32.80402	133205
32.81028	141402
32.81653	138804
32.82278	136476
32.82903	132749
32.83530	135097
32.84155	132004
32.84780	136982
32.85407	133719
32.86032	134751
32.86657	131475
32.87283	140038
32.87908	133718
32.88533	131231
32.89160	130909
32.89785	135973
32.90410	132108
32.91037	130040
32.91662	131804
32.92287	134045
32.92913	131079
32.93538	134733
32.94163	132946
32.94790	130876
32.95415	132061
32.96040	135479
32.96667	132392
32.97292	131695
32.97917	135119
32.98543	133325
32.99168	132404
32.99793	132387
33.00420	136418
33.01045	131181
33.01670	132930
33.02297	133128
33.02922	133618
33.03547	136039
33.04172	136398
33.04798	130740
33.05423	133058
33.06048	131867
33.06675	137969
33.07300	136663
33.07925	135781
33.08552	131534
33.09177	132929
33.09802	134216
33.10428	131552
33.11053	133399
33.11678	135487
33.12305	132715
33.12930	134268
33.13555	132079
33.14182	132089
33.14807	133725
33.15432	132634
33.16058	134944
33.16683	129042
33.17308	135207
33.17935	133476
33.18560	132759
33.19185	132236
33.19812	136478
33.20437	134754
33.21062	133518
33.21688	133495
33.22313	134873
33.22938	130924
33.23565	134339
33.24190	133067
33.24815	134760
33.25440	131019
33.26067	132803
33.26692	130734
33.27317	130658
33.27943	132311
33.28568	130952
33.29193	131585
33.29820	131314
33.30445	136059
33.31070	131227
33.31697	132871
33.32322	129745
33.32947	133384
33.33573	132765
33.34198	136099
33.34823	128620
33.35450	133200
33.36075	130023
33.36700	134111
33.37327	131420
33.37952	131035
33.38577	133535
33.39203	135843
33.39828	133753
33.40453	133540
33.41080	133493
33.41705	134383
33.42330	133490
33.42957	132996
33.43582	126979
33.44207	133081
33.44833	133326
33.45458	132993
33.46083	128991
33.46710	134949
33.47335	128495
33.47960	131117
33.48585	128857
33.49212	130736
33.49837	131886
33.50462	134449
33.51088	134060
33.51713	131086
33.52338	133404
33.52965	130130
33.53590	127831
33.54215	129722
33.54842	132804
33.55467	135351
33.56092	130501
33.56718	129381
33.57343	132616
33.57968	133179
33.58595	128698
33.59220	128712
33.59845	132549
33.60472	130586
33.61097	135179
33.61722	133176
33.62348	135116
33.62973	129548
33.63598	132368
33.64225	131735
33.64850	131853
33.65475	132166
33.66102	129617
33.66727	135423
33.67352	132769
33.67978	131500
33.68603	130658
33.69228	132997
33.69853	129515
33.70480	128358
33.71105	136659
33.71730	130300
33.72357	132265
33.72982	127388
33.73607	127208
33.74233	135239
33.74858	130237
33.75483	134031
33.76110	134561
33.76735	132404
33.77360	130482
33.77987	128032
33.78612	134635
33.79237	133409
33.79863	129563
33.80488	130159
33.81113	131010
33.81740	132695
33.82365	131511
33.82990	129831
33.83617	131150
33.84242	131941
33.84867	130499
33.85493	131356
33.86118	129859
33.86743	126976
33.87370	131396
33.87995	131160
33.88620	132072
33.89247	129632
33.89872	129823
33.90497	132399
33.91123	129392
33.91748	130235
33.92373	133256
33.92998	129320
33.93625	131681
33.94250	138107
33.94875	131031
33.95502	131238
33.96127	128433
33.96752	129569
33.97378	129851
33.98003	129419
33.98628	129775
33.99255	128758
33.99880	128714
34.00505	129706
34.01132	129598
34.01757	129902
34.02382	127514
34.03008	125277
34.03633	129284
34.04258	129178
34.04885	130374
34.05510	131189
34.06135	127240
34.06762	133529
34.07387	131634
34.08012	127871
34.08638	133213
34.09263	129964
34.09888	132878
34.10515	130340
34.11140	132562
34.11765	128902
34.12392	132512
34.13017	134272
34.13642	128507
34.14267	132786
34.14893	131821
34.15518	130614
34.16143	129647
34.16770	127839
34.17395	129926
34.18020	127864
34.18647	126932
34.19272	134763
34.19897	130524
34.20523	128911
34.21148	131736
34.21773	133172
34.22400	132524
34.23025	130559
34.23650	128562
34.24277	131860
34.24902	127894
34.25527	131318
34.26153	127068
34.26778	131428
34.27403	131942
34.28030	133820
34.28655	129736
34.29280	130925
34.29907	131158
34.30532	126564
34.31157	130178
34.31783	128994
34.32408	128906
34.33033	128431
34.33660	128731
34.34285	129417
34.34910	129037
34.35537	126422
34.36162	128936
34.36787	132728
34.37412	131168
34.38038	127727
34.38663	131862
34.39288	131055
34.39915	127136
34.40540	127485
34.41165	128831
34.41792	130530
34.42417	127462
34.43042	130534
34.43668	128494
34.44293	130173
34.44918	130830
34.45545	130725
34.46170	128433
34.46795	132635
34.47422	127079
34.48047	131686
34.48672	126634
34.49298	130301
34.49923	126829
34.50548	131719
34.51175	132884
34.51800	129467
34.52425	130900
34.53052	125737
34.53677	123951
34.54302	129262
34.54928	129462
34.55553	131401
34.56178	130133
34.56805	129541
34.57430	128520
34.58055	126998
34.58680	128249
34.59307	131032
34.59932	128460
34.60557	126192
34.61183	129606
34.61808	134114
34.62433	129628
34.63060	131654
34.63685	126197
34.64310	123384
34.64937	128206
34.65562	128822
34.66187	124999
34.66813	128889
34.67438	127670
34.68063	129598
34.68690	129144
34.69315	128677
34.69940	131172
34.70567	129823
34.71192	126922
34.71817	125211
34.72443	129603
34.73068	130955
34.73693	124884
34.74320	129509
34.74945	131753
34.75570	127634
34.76197	128059
34.76822	123631
34.77447	125615
34.78073	128015
34.78698	127661
34.79323	129324
34.79950	128727
34.80575	129191
34.81200	125172
34.81825	123393
34.82452	129628
34.83077	127721
34.83702	126528
34.84328	125629
34.84953	123827
34.85578	130141
34.86205	127421
34.86830	125073
34.87455	124860
34.88082	127233
34.88707	128960
34.89332	128524
34.89958	126324
34.90583	126804
34.91208	123315
34.91835	124553
34.92460	129559
34.93085	131807
34.93712	128830
34.94337	126893
34.94962	125844
34.95588	124304
34.96213	129915
34.96838	126197
34.97465	124412
34.98090	125896
34.98715	127432
34.99342	128088
34.99967	132288
35.00592	128699
35.01218	126326
35.01843	128038
35.02468	129282
35.03093	126261
35.03720	130976
35.04345	128195
35.04970	125361
35.05597	130222
35.06222	128146
35.06847	125654
35.07473	124579
35.08098	125969
35.08723	125470
35.09350	127181
35.09975	127637
35.10600	130359
35.11227	125492
35.11852	129071
35.12477	129640
35.13103	125231
35.13728	127699
35.14353	128259
35.14980	130183
35.15605	125885
35.16230	126291
35.16857	125247
35.17482	128344
35.18107	126832
35.18733	128012
35.19358	125196
35.19983	126771
35.20610	125580
35.21235	125351
35.21860	127061
35.22487	125296
35.23112	125494
35.23737	127524
35.24362	128102
35.24988	128576
35.25613	127185
35.26238	126553
35.26865	128237
35.27490	126243
35.28115	128339
35.28742	126490
35.29367	129295
35.29992	124247
35.30618	126296
35.31243	124037
35.31868	130642
35.32495	126350
35.33120	126118
35.33745	124549
35.34372	126486
35.34997	125065
35.35622	124652
35.36248	130184
35.36873	125088
35.37498	127231
35.38125	128182
35.38750	130270
35.39375	128658
35.40002	126757
35.40627	124595
35.41252	127106
35.41878	128809
35.42503	129013
35.43128	128807
35.43755	124418
35.44380	125939
35.45005	127247
35.45632	128623
35.46257	126266
35.46882	125281
35.47507	129468
35.48133	121142
35.48758	123778
35.49383	124768
35.50010	126413
35.50635	126823
35.51260	129206
35.51887	124673
35.52512	129901
35.53137	126988
35.53763	124638
35.54388	128173
35.55013	127352
35.55640	125953
35.56265	123818
35.56890	126024
35.57517	128222
35.58142	128701
35.58767	124332
35.59393	127112
35.60018	126457
35.60643	123671
35.61270	123505
35.61895	128987
35.62520	121040
35.63147	131128
35.63772	121594
35.64397	127595
35.65023	127469
35.65648	125082
35.66273	123334
35.66900	124515
35.67525	123040
35.68150	124771
35.68775	125698
35.69402	126863
35.70027	124195
35.70652	124207
35.71278	121651
35.71903	127679
35.72528	125924
35.73155	127738
35.73780	126532
35.74405	125997
35.75032	127335
35.75657	127586
35.76282	124071
35.76908	124409
35.77533	126273
35.78158	126566
35.78785	123446
35.79410	126800
35.80035	127711
35.80662	123511
35.81287	122830
35.81912	126239
35.82538	124173
35.83163	125789
35.83788	124091
35.84415	123365
35.85040	125647
35.85665	123156
35.86292	125860
35.86917	123568
35.87542	123061
35.88168	125002
35.88793	123818
35.89418	125777
35.90043	126704
35.90670	122029
35.91295	129820
35.91920	123847
35.92547	123030
35.93172	126301
35.93797	129554
35.94423	122571
35.95048	124597
35.95673	123468
35.96300	128419
35.96925	125330
35.97550	127487
35.98177	125195
35.98802	128527
35.99427	123599
36.00053	126129
36.00678	125997
36.01303	124165
36.01930	125147
36.02555	128608
36.03180	117097
36.03807	125752
36.04432	121433
36.05057	124649
36.05683	125160
36.06308	124964
36.06933	124047
36.07560	121342
36.08185	125863
36.08810	128387
36.09437	122565
36.10062	124319
36.10687	121949
36.11313	121961
36.11938	123342
36.12563	123782
36.13188	122865
36.13815	123196
36.14440	122298
36.15065	126296
36.15692	129032
36.16317	127382
36.16942	123922
36.17568	119410
36.18193	127617
36.18818	124311
36.19445	124035
36.20070	121196
36.20695	122525
36.21322	125053
36.21947	123083
36.22572	125455
36.23198	126617
36.23823	127792
36.24448	121056
36.25075	121763
36.25700	125573
36.26325	126698
36.26952	125508
36.27577	121357
36.28202	121535
36.28828	122257
36.29453	125971
36.30078	122996
36.30705	127395
36.31330	125047
36.31955	126625
36.32582	120631
36.33207	124081
36.33832	122075
36.34457	126658
36.35083	127635
36.35708	124903
36.36333	126240
36.36960	124557
36.37585	121948
36.38210	125609
36.38837	122157
36.39462	126039
36.40087	124018
36.40713	121862
36.41338	127661
36.41963	123678
36.42590	127364
36.43215	123991
36.43840	121374
36.44467	125133
36.45092	122975
36.45717	124486
36.46343	123513
36.46968	127663
36.47593	122771
36.48220	122885
36.48845	127912
36.49470	124688
36.50097	125021
36.50722	121615
36.51347	122204
36.51973	124989
36.52598	127517
36.53223	126878
36.53850	124758
36.54475	123354
36.55100	124736
36.55727	122939
36.56352	120351
36.56977	127299
36.57602	123992
36.58228	122958
36.58853	122752
36.59478	120737
36.60105	124303
36.60730	120932
36.61355	123266
36.61982	121487
36.62607	127922
36.63232	127152
36.63858	123721
36.64483	124621
36.65108	122258
36.65735	123920
36.66360	127144
36.66985	123757
36.67612	123525
36.68237	124500
36.68862	124966
36.69488	121437
36.70113	120133
36.70738	123101
36.71365	120386
36.71990	123638
36.72615	127379
36.73242	123642
36.73867	123449
36.74492	124502
36.75118	123458
36.75743	124283
36.76368	122997
36.76995	121951
36.77620	124517
36.78245	123085
36.78870	127151
36.79497	124203
36.80122	123153
36.80747	124623
36.81373	129751
36.81998	122735
36.82623	124159
36.83250	121549
36.83875	123429
36.84500	121779
36.85127	125463
36.85752	123358
36.86377	118423
36.87003	120512
36.87628	124270
36.88253	122237
36.88880	126665
36.89505	122772
36.90130	121726
36.90757	123237
36.91382	124033
36.92007	123652
36.92633	122886
36.93258	122782
36.93883	120851
36.94510	121224
36.95135	123159
36.95760	124438
36.96387	122522
36.97012	118931
36.97637	123498
36.98263	120024
36.98888	123016
36.99513	124162
37.00140	125308
37.00765	121587
37.01390	119842
37.02015	125054
37.02642	126060
37.03267	119312
37.03892	121255
37.04518	121893
37.05143	127138
37.05768	119387
37.06395	121820
37.07020	123585
37.07645	125433
37.08272	122782
37.08897	122839
37.09522	118576
37.10148	123799
37.10773	121184
37.11398	122131
37.12025	123284
37.12650	120791
37.13275	122129
37.13902	122936
37.14527	122423
37.15152	119005
37.15778	124026
37.16403	120883
37.17028	123783
37.17655	123281
37.18280	120843
37.18905	121473
37.19532	119096
37.20157	122019
37.20782	115394
37.21408	123287
37.22033	121570
37.22658	119585
37.23283	121504
37.23910	122210
37.24535	122684
37.25160	125247
37.25787	123570
37.26412	121261
37.27037	122904
37.27663	123351
37.28288	124985
37.28913	122473
37.29540	122229
37.30165	122657
37.30790	121989
37.31417	124266
37.32042	123103
37.32667	121666
37.33293	122486
37.33918	125490
37.34543	122636
37.35170	119580
37.35795	125594
37.36420	119303
37.37047	124424
37.37672	120485
37.38297	122638
37.38923	119020
37.39548	122551
37.40173	120900
37.40800	122387
37.41425	120022
37.42050	120275
37.42677	124898
37.43302	122202
37.43927	122562
37.44553	120416
37.45178	116792
37.45803	117068
37.46428	124402
37.47055	122664
37.47680	117499
37.48305	118722
37.48932	122440
