D:\MassHunter\GCMS\1\data\metastasis_lineages_3replicates_3runs_10302020\M_plate2_run3_10302020.D Sat Oct 31 14:19:34 2020
Start of data points
5.99360	152833
5.99985	153809
6.00612	169720
6.01237	179172
6.01862	175584
6.02488	176685
6.03113	196186
6.03738	199493
6.04363	207668
6.04990	190362
6.05615	180712
6.06240	177751
6.06867	179103
6.07492	173111
6.08117	163256
6.08743	162662
6.09368	281582
6.09993	652736
6.10620	1144004
6.11245	1252604
6.11870	903243
6.12497	517533
6.13122	309958
6.13747	247071
6.14373	258806
6.14998	345276
6.15623	601864
6.16250	1023778
6.16875	1250889
6.17500	1061494
6.18127	682275
6.18752	410987
6.19377	287411
6.20003	225413
6.20628	201052
6.21253	193276
6.21880	202748
6.22505	196722
6.23130	204813
6.23757	190460
6.24382	176343
6.25007	165623
6.25633	160945
6.26258	162731
6.26883	175352
6.27508	179724
6.28135	178662
6.28760	171486
6.29385	161387
6.30012	152828
6.30637	166458
6.31262	167646
6.31888	193934
6.32513	220792
6.33138	298949
6.33765	408243
6.34390	448225
6.35015	361851
6.35642	239966
6.36267	192805
6.36892	198370
6.37518	191100
6.38143	188878
6.38768	186099
6.39395	207586
6.40020	285944
6.40645	479402
6.41272	730986
6.41897	823830
6.42522	901094
6.43148	1024228
6.43773	955762
6.44398	634829
6.45025	405652
6.45650	484758
6.46275	1040697
6.46902	2312756
6.47527	4751921
6.48152	9605706
6.48777	1.81278E+07
6.49403	2.69349E+07
6.50028	2.981591E+07
6.50653	2.107997E+07
6.51280	6962562
6.51905	1246071
6.52530	381382
6.53157	330557
6.53782	368482
6.54407	475334
6.55033	665857
6.55658	1171391
6.56283	2228242
6.56910	3058869
6.57535	2586606
6.58160	1393230
6.58787	639345
6.59412	389300
6.60037	328776
6.60663	295243
6.61288	276167
6.61913	276851
6.62540	275888
6.63165	301820
6.63790	312871
6.64417	302323
6.65042	265762
6.65667	264003
6.66293	314336
6.66918	419250
6.67543	486818
6.68170	448363
6.68795	349240
6.69420	292227
6.70045	277368
6.70672	289466
6.71297	304656
6.71922	326326
6.72548	332425
6.73173	332296
6.73798	352255
6.74425	367603
6.75050	367173
6.75675	368014
6.76302	364709
6.76927	362050
6.77552	370349
6.78178	381048
6.78803	388109
6.79428	401420
6.80055	426725
6.80680	435469
6.81305	448863
6.81932	464519
6.82557	477146
6.83182	484912
6.83808	513484
6.84433	601337
6.85058	688125
6.85685	656144
6.86310	570533
6.86935	520166
6.87562	527605
6.88187	606282
6.88812	710435
6.89438	719035
6.90063	643836
6.90688	545008
6.91315	494670
6.91940	461991
6.92565	454481
6.93190	450363
6.93817	446620
6.94442	451741
6.95067	437750
6.95693	436868
6.96318	412704
6.96943	393444
6.97570	395138
6.98195	394960
6.98820	373534
6.99447	350788
7.00072	327611
7.00697	314751
7.01323	311671
7.01948	330205
7.02573	391072
7.03200	529826
7.03825	917410
7.04450	1770353
7.05077	2805443
7.05702	3044145
7.06327	2156614
7.06953	1047365
7.07578	426783
7.08203	246349
7.08830	200040
7.09455	184302
7.10080	163987
7.10707	164031
7.11332	154994
7.11957	156001
7.12583	150205
7.13208	161109
7.13833	180052
7.14458	187038
7.15085	163494
7.15710	142565
7.16335	134245
7.16962	136124
7.17587	129838
7.18212	136916
7.18838	128009
7.19463	132533
7.20088	136141
7.20715	139776
7.21340	130867
7.21965	128963
7.22592	126699
7.23217	134828
7.23842	148426
7.24468	167688
7.25093	202649
7.25718	270017
7.26345	425155
7.26970	571258
7.27595	556658
7.28222	424744
7.28847	275911
7.29472	208592
7.30098	169725
7.30723	157309
7.31348	147098
7.31975	138422
7.32600	122610
7.33225	123087
7.33852	119895
7.34477	122713
7.35102	122701
7.35728	127128
7.36353	118354
7.36978	115661
7.37603	125077
7.38230	141378
7.38855	165484
7.39480	170218
7.40107	160970
7.40732	164258
7.41357	215227
7.41983	379069
7.42608	569500
7.43233	641135
7.43860	518236
7.44485	347154
7.45110	219804
7.45737	165141
7.46362	161234
7.46987	166066
7.47613	175424
7.48238	190189
7.48863	199881
7.49490	216136
7.50115	185631
7.50740	159290
7.51367	139478
7.51992	122044
7.52617	119911
7.53243	120888
7.53868	117878
7.54493	155299
7.55120	395069
7.55745	1562703
7.56370	5300535
7.56997	1.269742E+07
7.57622	2.193008E+07
7.58247	2.828613E+07
7.58872	2.802714E+07
7.59498	1.792773E+07
7.60123	7009202
7.60748	3272998
7.61375	2194586
7.62000	1421531
7.62625	905116
7.63252	600832
7.63877	384625
7.64502	272650
7.65128	216001
7.65753	186030
7.66378	191864
7.67005	223937
7.67630	290333
7.68255	363737
7.68882	349174
7.69507	263485
7.70132	199912
7.70758	184752
7.71383	247378
7.72008	351881
7.72635	407588
7.73260	373894
7.73885	301818
7.74512	243899
7.75137	204416
7.75762	167277
7.76388	157228
7.77013	157556
7.77638	161920
7.78265	169852
7.78890	158802
7.79515	148771
7.80142	149091
7.80767	147291
7.81392	149989
7.82017	183217
7.82643	253293
7.83268	315035
7.83893	317629
7.84520	256388
7.85145	193573
7.85770	187941
7.86397	200945
7.87022	200379
7.87647	213480
7.88273	233956
7.88898	244400
7.89523	228117
7.90150	206893
7.90775	198068
7.91400	195273
7.92027	190595
7.92652	170446
7.93277	154190
7.93903	136435
7.94528	142226
7.95153	178380
7.95780	228910
7.96405	245352
7.97030	231562
7.97657	230114
7.98282	256306
7.98907	384206
7.99533	677281
8.00158	1117692
8.00783	1617832
8.01410	2253549
8.02035	2734082
8.02660	2499171
8.03285	1676469
8.03912	1034078
8.04537	885541
8.05162	1021719
8.05788	1045474
8.06413	830982
8.07038	499960
8.07665	277416
8.08290	200596
8.08915	184794
8.09542	210931
8.10167	235159
8.10792	253670
8.11418	261754
8.12043	254380
8.12668	224515
8.13295	197124
8.13920	186059
8.14545	183093
8.15172	175297
8.15797	161671
8.16422	149917
8.17048	146343
8.17673	148783
8.18298	143898
8.18925	142970
8.19550	139800
8.20175	129675
8.20802	131309
8.21427	130648
8.22052	132556
8.22678	135531
8.23303	144710
8.23928	161761
8.24555	162505
8.25180	165813
8.25805	167970
8.26430	167690
8.27057	172099
8.27682	191586
8.28307	202161
8.28933	208607
8.29558	194109
8.30183	172212
8.30810	142146
8.31435	126509
8.32060	108155
8.32687	112251
8.33312	123799
8.33937	132704
8.34563	129909
8.35188	137042
8.35813	138884
8.36440	156604
8.37065	159275
8.37690	153845
8.38317	136055
8.38942	130930
8.39567	125701
8.40193	125355
8.40818	122232
8.41443	127777
8.42070	130764
8.42695	136854
8.43320	134411
8.43947	133600
8.44572	133410
8.45197	136359
8.45823	128610
8.46448	129870
8.47073	134803
8.47698	152515
8.48325	148009
8.48950	146606
8.49575	147506
8.50202	158787
8.50827	167174
8.51452	171795
8.52078	153716
8.52703	135649
8.53328	115878
8.53955	110924
8.54580	108448
8.55205	118278
8.55832	169541
8.56457	276276
8.57082	423460
8.57708	513103
8.58333	498765
8.58958	509451
8.59585	677974
8.60210	983669
8.60835	1752729
8.61462	4368157
8.62087	9815656
8.62712	1.534069E+07
8.63338	1.661838E+07
8.63963	1.168538E+07
8.64588	4622736
8.65215	1246992
8.65840	374215
8.66465	237440
8.67092	209200
8.67717	194627
8.68342	184861
8.68967	161311
8.69593	159988
8.70218	176495
8.70843	206009
8.71470	233346
8.72095	224842
8.72720	197958
8.73347	177760
8.73972	182730
8.74597	203977
8.75223	217085
8.75848	185870
8.76473	142280
8.77100	121450
8.77725	120855
8.78350	120259
8.78977	122598
8.79602	117632
8.80227	111029
8.80853	104352
8.81478	106246
8.82103	129427
8.82730	280636
8.83355	793609
8.83980	2050366
8.84607	4345376
8.85232	7323414
8.85857	9448515
8.86483	1.008726E+07
8.87108	8895853
8.87733	6195317
8.88360	2215937
8.88985	553476
8.89610	276897
8.90237	233416
8.90862	194656
8.91487	171637
8.92112	160538
8.92738	152769
8.93363	147317
8.93988	140661
8.94615	145517
8.95240	163938
8.95865	200916
8.96492	248732
8.97117	296275
8.97742	333212
8.98368	367946
8.98993	421553
8.99618	567135
9.00245	776631
9.00870	987271
9.01495	983736
9.02122	775588
9.02747	506119
9.03372	333479
9.03998	245384
9.04623	198948
9.05248	181521
9.05875	177116
9.06500	186984
9.07125	189339
9.07752	167944
9.08377	160335
9.09002	170281
9.09628	180898
9.10253	190635
9.10878	180784
9.11505	160951
9.12130	141934
9.12755	130774
9.13380	123902
9.14007	125491
9.14632	143412
9.15257	177138
9.15883	228559
9.16508	281450
9.17133	293552
9.17760	316126
9.18385	407680
9.19010	587475
9.19637	710192
9.20262	629454
9.20887	404548
9.21513	242738
9.22138	172819
9.22763	149550
9.23390	164167
9.24015	227010
9.24640	295327
9.25267	322118
9.25892	269726
9.26517	195042
9.27143	142321
9.27768	121455
9.28393	123066
9.29020	143009
9.29645	199420
9.30270	292126
9.30897	418110
9.31522	553572
9.32147	671027
9.32773	691110
9.33398	640577
9.34023	716920
9.34648	1055945
9.35275	1347065
9.35900	1237277
9.36525	823372
9.37152	543553
9.37777	1018862
9.38402	3350927
9.39028	8593106
9.39653	1.469983E+07
9.40278	1.660962E+07
9.40905	1.311057E+07
9.41530	6140319
9.42155	1894035
9.42782	979653
9.43407	2524100
9.44032	8013250
9.44658	1.875894E+07
9.45283	3.270703E+07
9.45908	4.406722E+07
9.46535	4.915509E+07
9.47160	5.05679E+07
9.47785	4.614432E+07
9.48412	2.009316E+07
9.49037	2984901
9.49662	504131
9.50288	231051
9.50913	183788
9.51538	182422
9.52165	194563
9.52790	207632
9.53415	208333
9.54042	203247
9.54667	189908
9.55292	177390
9.55918	168617
9.56543	173804
9.57168	186825
9.57793	205924
9.58420	208645
9.59045	210562
9.59670	207290
9.60297	223420
9.60922	268459
9.61547	301017
9.62173	274843
9.62798	213218
9.63423	163289
9.64050	140336
9.64675	134615
9.65300	140026
9.65927	140827
9.66552	140217
9.67177	156572
9.67803	380940
9.68428	1511733
9.69053	4973388
9.69680	1.082779E+07
9.70305	1.604216E+07
9.70930	1.659149E+07
9.71557	1.085699E+07
9.72182	4022360
9.72807	1128506
9.73433	557646
9.74058	538192
9.74683	502813
9.75310	383234
9.75935	262709
9.76560	202718
9.77187	178996
9.77812	186670
9.78437	177019
9.79062	162245
9.79688	153082
9.80313	145099
9.80938	129963
9.81565	129725
9.82190	129517
9.82815	137073
9.83442	157132
9.84067	180706
9.84692	222863
9.85318	377037
9.85943	1107000
9.86568	3285619
9.87195	6634768
9.87820	9100030
9.88445	8250784
9.89072	4831923
9.89697	2111104
9.90322	1367532
9.90948	1661293
9.91573	1740974
9.92198	1205292
9.92825	576501
9.93450	279136
9.94075	193684
9.94702	191382
9.95327	236213
9.95952	371875
9.96578	666053
9.97203	1105303
9.97828	1622385
9.98455	2262693
9.99080	3073057
9.99705	3405459
10.00332	2769336
10.00957	1631313
10.01582	757398
10.02207	405403
10.02833	282116
10.03458	226344
10.04083	200424
10.04710	194703
10.05335	196397
10.05960	178734
10.06587	156469
10.07212	143351
10.07837	144850
10.08463	156622
10.09088	182924
10.09713	212104
10.10340	227713
10.10965	204094
10.11590	176566
10.12217	159128
10.12842	136910
10.13467	131272
10.14093	123263
10.14718	126647
10.15343	128690
10.15970	132006
10.16595	133089
10.17220	137357
10.17847	148791
10.18472	155760
10.19097	163328
10.19723	154890
10.20348	145753
10.20973	146200
10.21600	172160
10.22225	271675
10.22850	485382
10.23475	831488
10.24102	1164970
10.24727	1191841
10.25352	920296
10.25978	588578
10.26603	383625
10.27228	287813
10.27855	227089
10.28480	206738
10.29105	229507
10.29732	244811
10.30357	236471
10.30982	207604
10.31608	192613
10.32233	180157
10.32858	163541
10.33485	158548
10.34110	160208
10.34735	145826
10.35362	136737
10.35987	144369
10.36612	155107
10.37238	158329
10.37863	152930
10.38488	140357
10.39115	129370
10.39740	119151
10.40365	109519
10.40992	101663
10.41617	111133
10.42242	120367
10.42868	138972
10.43493	147221
10.44118	147172
10.44745	149983
10.45370	162486
10.45995	167047
10.46620	177633
10.47247	229442
10.47872	377139
10.48497	625301
10.49123	743549
10.49748	626275
10.50373	400999
10.51000	228454
10.51625	159586
10.52250	147535
10.52877	184670
10.53502	252410
10.54127	303133
10.54753	290685
10.55378	240323
10.56003	208225
10.56630	191101
10.57255	189390
10.57880	208081
10.58507	210777
10.59132	203736
10.59757	242408
10.60383	578019
10.61008	1894126
10.61633	4881245
10.62260	8921212
10.62885	1.045585E+07
10.63510	8194004
10.64137	4134025
10.64762	1344122
10.65387	428404
10.66013	211580
10.66638	179338
10.67263	188508
10.67888	204228
10.68515	205494
10.69140	183664
10.69765	154455
10.70392	140302
10.71017	141697
10.71642	145483
10.72268	157399
10.72893	167243
10.73518	175425
10.74145	168425
10.74770	162097
10.75395	146605
10.76022	149779
10.76647	149851
10.77272	160610
10.77898	170593
10.78523	168047
10.79148	164228
10.79775	161443
10.80400	158567
10.81025	162240
10.81652	185317
10.82277	194913
10.82902	179475
10.83528	158684
10.84153	142130
10.84778	138992
10.85405	152318
10.86030	166921
10.86655	167234
10.87282	169221
10.87907	170689
10.88532	171237
10.89158	171478
10.89783	173462
10.90408	184315
10.91033	183538
10.91660	176358
10.92285	175516
10.92910	193264
10.93537	196155
10.94162	171287
10.94787	148409
10.95413	145923
10.96038	227396
10.96663	661348
10.97290	2297954
10.97915	6296247
10.98540	1.244845E+07
10.99167	1.810652E+07
10.99792	1.919859E+07
11.00417	1.338705E+07
11.01043	5842627
11.01668	1603735
11.02293	418154
11.02920	247472
11.03545	267863
11.04170	290454
11.04797	313395
11.05422	344528
11.06047	381486
11.06673	380698
11.07298	309654
11.07923	217687
11.08550	166642
11.09175	149117
11.09800	154801
11.10427	173082
11.11052	184785
11.11677	193723
11.12302	209382
11.12928	216101
11.13553	219341
11.14178	217254
11.14805	220894
11.15430	285484
11.16055	441351
11.16682	657995
11.17307	738782
11.17932	615682
11.18558	398620
11.19183	247055
11.19808	203705
11.20435	253178
11.21060	365280
11.21685	512334
11.22312	538412
11.22937	435736
11.23562	310976
11.24188	238305
11.24813	234316
11.25438	249664
11.26065	253476
11.26690	232521
11.27315	238928
11.27942	257206
11.28567	272332
11.29192	252000
11.29818	210073
11.30443	190876
11.31068	207130
11.31695	314596
11.32320	523636
11.32945	749824
11.33570	815704
11.34197	628100
11.34822	355502
11.35447	200081
11.36073	142963
11.36698	126099
11.37323	124545
11.37950	121144
11.38575	120638
11.39200	119687
11.39827	126848
11.40452	139438
11.41077	143764
11.41703	140078
11.42328	133824
11.42953	137807
11.43580	143811
11.44205	161502
11.44830	189108
11.45457	203760
11.46082	196470
11.46707	170289
11.47333	152279
11.47958	149098
11.48583	151955
11.49210	156039
11.49835	152723
11.50460	149626
11.51087	146545
11.51712	135371
11.52337	129086
11.52963	134340
11.53588	146783
11.54213	166798
11.54840	179555
11.55465	168578
11.56090	151653
11.56715	135873
11.57342	128739
11.57967	128313
11.58592	139553
11.59218	137457
11.59843	144064
11.60468	138901
11.61095	131999
11.61720	134773
11.62345	136680
11.62972	134932
11.63597	143848
11.64222	148288
11.64848	167342
11.65473	201325
11.66098	228216
11.66725	226124
11.67350	194649
11.67975	167606
11.68602	143237
11.69227	144844
11.69852	161145
11.70478	182242
11.71103	211954
11.71728	240433
11.72355	251111
11.72980	237109
11.73605	229092
11.74232	229143
11.74857	223193
11.75482	208501
11.76108	218001
11.76733	234464
11.77358	234605
11.77983	222540
11.78610	207583
11.79235	204642
11.79860	211772
11.80487	215244
11.81112	206308
11.81737	200333
11.82363	234432
11.82988	341785
11.83613	541438
11.84240	697677
11.84865	629972
11.85490	455236
11.86117	286793
11.86742	210005
11.87367	186478
11.87993	207332
11.88618	273786
11.89243	372354
11.89870	440116
11.90495	444343
11.91120	380039
11.91747	299909
11.92372	237371
11.92997	228744
11.93623	286991
11.94248	546577
11.94873	1287258
11.95500	2840113
11.96125	5115766
11.96750	6635853
11.97377	6023133
11.98002	3554690
11.98627	1487854
11.99252	587584
11.99878	327194
12.00503	267335
12.01128	264645
12.01755	281076
12.02380	314514
12.03005	345766
12.03632	447590
12.04257	668637
12.04882	1057668
12.05508	1456444
12.06133	1583260
12.06758	1259033
12.07385	824897
12.08010	504558
12.08635	406947
12.09262	391101
12.09887	378574
12.10512	350976
12.11138	308311
12.11763	264271
12.12388	238386
12.13015	225486
12.13640	213586
12.14265	212501
12.14892	201414
12.15517	191878
12.16142	198254
12.16768	200027
12.17393	200415
12.18018	207031
12.18645	226949
12.19270	287818
12.19895	412461
12.20522	714305
12.21147	1225528
12.21772	1905768
12.22397	2370990
12.23023	2222188
12.23648	1578483
12.24273	977185
12.24900	789340
12.25525	997185
12.26150	1358908
12.26777	1572986
12.27402	1354846
12.28027	965918
12.28653	628552
12.29278	421559
12.29903	296291
12.30530	231119
12.31155	191558
12.31780	174707
12.32407	160940
12.33032	158594
12.33657	175894
12.34283	209615
12.34908	260613
12.35533	296021
12.36160	305024
12.36785	271576
12.37410	255742
12.38037	297157
12.38662	378317
12.39287	437433
12.39913	414477
12.40538	332237
12.41163	254454
12.41790	229914
12.42415	241004
12.43040	282360
12.43665	361876
12.44292	409662
12.44917	399698
12.45542	360351
12.46168	309856
12.46793	292989
12.47418	379459
12.48045	641990
12.48670	1103932
12.49295	1569753
12.49922	1694131
12.50547	1417516
12.51172	858294
12.51798	416976
12.52423	250648
12.53048	271580
12.53675	386196
12.54300	564305
12.54925	635766
12.55552	555954
12.56177	406833
12.56802	362748
12.57428	545350
12.58053	1009010
12.58678	1700733
12.59305	2160154
12.59930	2123716
12.60555	1791500
12.61182	1912943
12.61807	2692133
12.62432	3767855
12.63058	5041793
12.63683	6651136
12.64308	8970203
12.64935	1.204081E+07
12.65560	1.658717E+07
12.66185	2.100804E+07
12.66810	2.576111E+07
12.67437	2.859231E+07
12.68062	2.689704E+07
12.68687	1.722408E+07
12.69313	5525798
12.69938	1199580
12.70563	446709
12.71190	341765
12.71815	343799
12.72440	378841
12.73067	460086
12.73692	557326
12.74317	593992
12.74943	569033
12.75568	503238
12.76193	450165
12.76820	406404
12.77445	347705
12.78070	312693
12.78697	292189
12.79322	278570
12.79947	269704
12.80573	260187
12.81198	255018
12.81823	256652
12.82450	285688
12.83075	313983
12.83700	307208
12.84327	290050
12.84952	266954
12.85577	252926
12.86203	271506
12.86828	280726
12.87453	330700
12.88078	537259
12.88705	1071384
12.89330	1768006
12.89955	2229425
12.90582	2067954
12.91207	1433203
12.91832	832107
12.92458	496267
12.93083	330430
12.93708	248189
12.94335	196412
12.94960	176030
12.95585	168136
12.96212	151328
12.96837	148018
12.97462	141100
12.98088	147038
12.98713	154280
12.99338	171072
12.99965	194118
13.00590	226288
13.01215	253213
13.01842	282653
13.02467	350580
13.03092	492417
13.03718	594659
13.04343	588849
13.04968	425558
13.05595	270144
13.06220	186812
13.06845	173813
13.07472	210242
13.08097	275104
13.08722	333525
13.09348	363860
13.09973	375451
13.10598	374384
13.11223	344093
13.11850	323836
13.12475	288385
13.13100	255829
13.13727	250328
13.14352	257571
13.14977	250709
13.15603	251140
13.16228	237020
13.16853	218735
13.17480	191446
13.18105	163462
13.18730	151478
13.19357	140995
13.19982	139069
13.20607	139176
13.21233	146672
13.21858	162339
13.22483	179864
13.23110	196761
13.23735	227352
13.24360	236771
13.24987	223480
13.25612	220750
13.26237	230291
13.26863	227982
13.27488	213099
13.28113	188494
13.28740	176792
13.29365	186961
13.29990	191328
13.30617	204236
13.31242	198698
13.31867	183214
13.32492	164391
13.33118	153648
13.33743	161971
13.34368	173597
13.34995	186151
13.35620	199536
13.36245	189076
13.36872	170816
13.37497	156339
13.38122	139030
13.38748	128787
13.39373	122411
13.39998	127531
13.40625	132262
13.41250	137543
13.41875	152745
13.42502	166774
13.43127	199115
13.43752	235785
13.44378	252798
13.45003	252892
13.45628	213780
13.46255	171710
13.46880	158415
13.47505	149964
13.48132	156753
13.48757	161114
13.49382	166997
13.50008	164626
13.50633	162346
13.51258	172055
13.51885	183667
13.52510	190080
13.53135	204654
13.53762	249112
13.54387	395290
13.55012	683925
13.55637	986949
13.56263	1023955
13.56888	765650
13.57513	460464
13.58140	270205
13.58765	212271
13.59390	220118
13.60017	246891
13.60642	266695
13.61267	281903
13.61893	282149
13.62518	266455
13.63143	236033
13.63770	204984
13.64395	177476
13.65020	159063
13.65647	149189
13.66272	146519
13.66897	149914
13.67523	157809
13.68148	175586
13.68773	180932
13.69400	184583
13.70025	176943
13.70650	168569
13.71277	162032
13.71902	154177
13.72527	154421
13.73153	153615
13.73778	151242
13.74403	177405
13.75030	243534
13.75655	446897
13.76280	755586
13.76905	992076
13.77532	920636
13.78157	620455
13.78782	353907
13.79408	243124
13.80033	226099
13.80658	287137
13.81285	460630
13.81910	891286
13.82535	1544804
13.83162	2034715
13.83787	1807995
13.84412	1170297
13.85038	651888
13.85663	422824
13.86288	323440
13.86915	263657
13.87540	253052
13.88165	357247
13.88792	715140
13.89417	1577228
13.90042	3377571
13.90668	5937600
13.91293	8756205
13.91918	9600449
13.92545	7075165
13.93170	3179546
13.93795	1068849
13.94422	342778
13.95047	191015
13.95672	169405
13.96298	166841
13.96923	154950
13.97548	156706
13.98173	160047
13.98800	179863
13.99425	200415
14.00050	230263
14.00677	288646
14.01302	337451
14.01927	337412
14.02553	277554
14.03178	205699
14.03803	172080
14.04430	161597
14.05055	174146
14.05680	196501
14.06307	230338
14.06932	287658
14.07557	308639
14.08183	283488
14.08808	235075
14.09433	194598
14.10060	168382
14.10685	166778
14.11310	172765
14.11937	189138
14.12562	194055
14.13187	189534
14.13813	164117
14.14438	145883
14.15063	137436
14.15690	144373
14.16315	150637
14.16940	145531
14.17567	143156
14.18192	142378
14.18817	144527
14.19443	164092
14.20068	203093
14.20693	273334
14.21318	428475
14.21945	728833
14.22570	1086541
14.23195	1278820
14.23822	1125656
14.24447	714164
14.25072	374432
14.25698	216550
14.26323	178970
14.26948	187464
14.27575	200525
14.28200	217595
14.28825	258043
14.29452	297255
14.30077	319601
14.30702	299124
14.31328	293105
14.31953	334115
14.32578	403061
14.33205	428368
14.33830	382893
14.34455	323196
14.35082	269109
14.35707	231136
14.36332	219284
14.36958	206637
14.37583	201819
14.38208	212956
14.38835	226176
14.39460	256803
14.40085	305072
14.40712	328863
14.41337	320340
14.41962	298091
14.42587	289747
14.43213	268519
14.43838	243671
14.44463	238453
14.45090	257967
14.45715	339949
14.46340	502098
14.46967	746266
14.47592	1049206
14.48217	1227194
14.48843	1113462
14.49468	816131
14.50093	508357
14.50720	322969
14.51345	253472
14.51970	256078
14.52597	277495
14.53222	281528
14.53847	257546
14.54473	226354
14.55098	213397
14.55723	216253
14.56350	237598
14.56975	263146
14.57600	271205
14.58227	254845
14.58852	219754
14.59477	198804
14.60103	195611
14.60728	210197
14.61353	221820
14.61980	222769
14.62605	209320
14.63230	214910
14.63855	264713
14.64482	353179
14.65107	432757
14.65732	411067
14.66358	378160
14.66983	311435
14.67608	289990
14.68235	277704
14.68860	310853
14.69485	395564
14.70112	476056
14.70737	530767
14.71362	544519
14.71988	679763
14.72613	1027508
14.73238	1637288
14.73865	2222338
14.74490	2460561
14.75115	2043008
14.75742	1422595
14.76367	917132
14.76992	542458
14.77618	306307
14.78243	213775
14.78868	207311
14.79495	231901
14.80120	262149
14.80745	281889
14.81372	280274
14.81997	258767
14.82622	203559
14.83248	161414
14.83873	135295
14.84498	132439
14.85125	136042
14.85750	143691
14.86375	155836
14.87000	160054
14.87627	172912
14.88252	175917
14.88877	168614
14.89503	163117
14.90128	147169
14.90753	160598
14.91380	178634
14.92005	209189
14.92630	250973
14.93257	271120
14.93882	274846
14.94507	247450
14.95133	221934
14.95758	222702
14.96383	230647
14.97010	255053
14.97635	281738
14.98260	301320
14.98887	312863
14.99512	296794
15.00137	268965
15.00763	256874
15.01388	243977
15.02013	234379
15.02640	229376
15.03265	232318
15.03890	245982
15.04517	270129
15.05142	287928
15.05767	301785
15.06393	309774
15.07018	320354
15.07643	320353
15.08268	325643
15.08895	361067
15.09520	411468
15.10145	478913
15.10772	493399
15.11397	543578
15.12022	630711
15.12648	739858
15.13273	924508
15.13898	1105866
15.14525	1261819
15.15150	1410769
15.15775	1878396
15.16402	3410419
15.17027	5861767
15.17652	8021025
15.18278	7392739
15.18903	4619373
15.19528	1999607
15.20155	769450
15.20780	361715
15.21405	250566
15.22032	206037
15.22657	192540
15.23282	181687
15.23908	187873
15.24533	189159
15.25158	205196
15.25785	208631
15.26410	213752
15.27035	209853
15.27662	209947
15.28287	203555
15.28912	205965
15.29537	206875
15.30163	206398
15.30788	208024
15.31413	204486
15.32040	224454
15.32665	261431
15.33290	279785
15.33917	266007
15.34542	227647
15.35167	225669
15.35793	247890
15.36418	269230
15.37043	281705
15.37670	252504
15.38295	218113
15.38920	201028
15.39547	194325
15.40172	187334
15.40797	186220
15.41423	183717
15.42048	192315
15.42673	220740
15.43300	246146
15.43925	272189
15.44550	339130
15.45177	406099
15.45802	442614
15.46427	408368
15.47053	336658
15.47678	272136
15.48303	222377
15.48930	199565
15.49555	211151
15.50180	248378
15.50807	317088
15.51432	451841
15.52057	728469
15.52682	1360799
15.53308	2450205
15.53933	4446141
15.54558	7167223
15.55185	1.086518E+07
15.55810	1.282247E+07
15.56435	9365281
15.57062	4086762
15.57687	1257273
15.58312	479513
15.58938	337478
15.59563	332187
15.60188	332267
15.60815	301611
15.61440	267090
15.62065	258942
15.62692	270360
15.63317	307203
15.63942	323714
15.64568	296525
15.65193	248961
15.65818	223459
15.66445	215171
15.67070	228445
15.67695	251320
15.68322	268347
15.68947	272683
15.69572	270158
15.70198	262034
15.70823	249550
15.71448	223647
15.72075	193171
15.72700	188656
15.73325	204369
15.73950	221321
15.74577	244715
15.75202	244320
15.75827	213021
15.76453	184859
15.77078	168367
15.77703	161668
15.78330	164747
15.78955	178914
15.79580	201958
15.80207	204970
15.80832	189970
15.81457	174263
15.82083	164056
15.82708	173636
15.83333	218062
15.83960	284215
15.84585	347503
15.85210	378085
15.85837	317135
15.86462	250416
15.87087	213059
15.87713	201442
15.88338	203846
15.88963	190260
15.89590	179118
15.90215	172758
15.90840	164296
15.91467	161816
15.92092	163687
15.92717	164243
15.93343	170925
15.93968	191240
15.94593	237899
15.95220	352652
15.95845	579426
15.96470	863890
15.97095	992643
15.97722	848914
15.98347	554956
15.98972	293033
15.99598	185034
16.00223	169047
16.00848	198351
16.01475	254984
16.02100	324825
16.02725	431715
16.03352	659488
16.03977	1069613
16.04602	1596755
16.05228	2022412
16.05853	1986522
16.06478	1616235
16.07105	1459276
16.07730	1894974
16.08355	2502517
16.08982	2500658
16.09607	2148055
16.10232	1455241
16.10858	992769
16.11483	871494
16.12108	932358
16.12735	1016565
16.13360	901081
16.13985	673355
16.14612	445056
16.15237	347920
16.15862	341959
16.16488	368001
16.17113	371552
16.17738	355140
16.18363	345152
16.18990	393262
16.19615	497959
16.20240	534028
16.20867	435314
16.21492	286705
16.22117	197128
16.22743	164352
16.23368	159600
16.23993	171438
16.24620	184380
16.25245	214440
16.25870	253565
16.26497	258461
16.27122	234528
16.27747	198044
16.28373	161940
16.28998	143374
16.29623	137471
16.30250	133721
16.30875	137630
16.31500	144074
16.32127	153254
16.32752	163559
16.33377	178646
16.34003	181318
16.34628	196449
16.35253	202150
16.35880	192950
16.36505	187900
16.37130	173298
16.37757	162015
16.38382	153595
16.39007	154005
16.39633	156381
16.40258	166137
16.40883	176168
16.41508	188292
16.42135	205041
16.42760	250565
16.43385	351338
16.44012	556991
16.44637	887430
16.45262	1114690
16.45888	1050670
16.46513	863990
16.47138	703446
16.47765	589288
16.48390	484026
16.49015	433876
16.49642	379540
16.50267	384041
16.50892	416999
16.51518	494585
16.52143	629801
16.52768	718791
16.53395	704237
16.54020	694456
16.54645	654628
16.55272	599165
16.55897	539493
16.56522	448719
16.57148	401704
16.57773	370089
16.58398	355598
16.59025	347898
16.59650	328906
16.60275	330099
16.60902	346021
16.61527	359574
16.62152	399450
16.62777	411727
16.63403	412715
16.64028	442849
16.64653	463017
16.65280	511986
16.65905	501801
16.66530	426828
16.67157	364328
16.67782	334444
16.68407	329084
16.69033	318204
16.69658	324102
16.70283	292942
16.70910	258247
16.71535	246162
16.72160	252762
16.72787	280284
16.73412	330273
16.74037	427365
16.74663	641480
16.75288	1048156
16.75913	1916345
16.76540	4022844
16.77165	7890938
16.77790	1.402824E+07
16.78417	2.064867E+07
16.79042	2.408557E+07
16.79667	2.178705E+07
16.80293	1.429751E+07
16.80918	8644979
16.81543	5978201
16.82170	6474875
16.82795	8158005
16.83420	1.101664E+07
16.84047	1.46618E+07
16.84672	1.659046E+07
16.85297	1.69538E+07
16.85922	1.415979E+07
16.86548	1.042278E+07
16.87173	8561379
16.87798	8494362
16.88425	1.132974E+07
16.89050	1.490109E+07
16.89675	1.785336E+07
16.90302	1.793183E+07
16.90927	1.537906E+07
16.91552	1.063081E+07
16.92178	6747498
16.92803	4778418
16.93428	4157702
16.94055	3960921
16.94680	4025800
16.95305	3943734
16.95932	4087476
16.96557	4032151
16.97182	3327774
16.97808	2368659
16.98433	1614120
16.99058	1105721
16.99685	967181
17.00310	1386985
17.00935	2751023
17.01562	6409054
17.02187	1.222892E+07
17.02812	2.000592E+07
17.03438	2.714129E+07
17.04063	3.360744E+07
17.04688	3.957675E+07
17.05315	4.608847E+07
17.05940	5.184796E+07
17.06565	5.284E+07
17.07190	5.10994E+07
17.07817	4.782329E+07
17.08442	4.51141E+07
17.09067	4.127843E+07
17.09693	3.66702E+07
17.10318	3.511557E+07
17.10943	3.53821E+07
17.11570	3.404299E+07
17.12195	4.089475E+07
17.12820	3.224893E+07
17.13447	1.218914E+07
17.14072	1.13601E+07
17.14697	1.137295E+07
17.15323	1.291244E+07
17.15948	1.881514E+07
17.16573	2.96972E+07
17.17200	4.138082E+07
17.17825	4.997542E+07
17.18450	5.275068E+07
17.19077	5.260511E+07
17.19702	4.601487E+07
17.20327	1.783636E+07
17.20953	4523784
17.21578	4168495
17.22203	5596206
17.22830	7113865
17.23455	9139511
17.24080	1.445473E+07
17.24707	2.520015E+07
17.25332	3.775307E+07
17.25957	4.858992E+07
17.26583	5.328539E+07
17.27208	5.373108E+07
17.27833	5.18849E+07
17.28458	3.655574E+07
17.29085	1.247725E+07
17.29710	9326317
17.30335	1.322367E+07
17.30962	1.484919E+07
17.31587	1.248508E+07
17.32212	7327134
17.32838	3050219
17.33463	1333970
17.34088	875714
17.34715	780516
17.35340	729721
17.35965	679821
17.36592	651754
17.37217	658057
17.37842	701928
17.38468	753953
17.39093	823244
17.39718	872244
17.40345	1060678
17.40970	1494788
17.41595	2121739
17.42222	2671208
17.42847	2806899
17.43472	2464389
17.44098	2076083
17.44723	2324706
17.45348	3485606
17.45975	4513598
17.46600	5016573
17.47225	3949671
17.47852	2601657
17.48477	1812981
17.49102	1537157
17.49728	1421929
17.50353	1141213
17.50978	1065133
17.51603	1241032
17.52230	1521390
17.52855	1561792
17.53480	1344099
17.54107	1019316
17.54732	754042
17.55357	805679
17.55983	1189191
17.56608	2472066
17.57233	5134619
17.57860	9869193
17.58485	1.452483E+07
17.59110	1.521943E+07
17.59737	1.103583E+07
17.60362	5002818
17.60987	2005960
17.61613	1238719
17.62238	1449324
17.62863	1569233
17.63490	1363042
17.64115	976840
17.64740	667786
17.65367	502257
17.65992	438008
17.66617	410636
17.67243	415137
17.67868	420794
17.68493	442795
17.69120	487487
17.69745	502181
17.70370	500098
17.70997	450954
17.71622	416410
17.72247	381678
17.72872	374509
17.73498	394369
17.74123	431251
17.74748	476145
17.75375	481261
17.76000	485735
17.76625	522378
17.77252	628340
17.77877	803335
17.78502	1081145
17.79128	1472744
17.79753	2020889
17.80378	2404240
17.81005	2562914
17.81630	2240534
17.82255	1672595
17.82882	1279902
17.83507	1081539
17.84132	1002584
17.84758	958474
17.85383	1085123
17.86008	2007557
17.86635	4621052
17.87260	1.009671E+07
17.87885	1.625904E+07
17.88512	1.867733E+07
17.89137	1.462887E+07
17.89762	6776726
17.90388	2415216
17.91013	918985
17.91638	587800
17.92265	494336
17.92890	454299
17.93515	437114
17.94140	460042
17.94767	470372
17.95392	489323
17.96017	509612
17.96643	518567
17.97268	490114
17.97893	426007
17.98520	408706
17.99145	424211
17.99770	492389
18.00397	592219
18.01022	740459
18.01647	721044
18.02273	645895
18.02898	544444
18.03523	482059
18.04150	441144
18.04775	417219
18.05400	383201
18.06027	345290
18.06652	316025
18.07277	298834
18.07903	299087
18.08528	318422
18.09153	360245
18.09780	408023
18.10405	439407
18.11030	442818
18.11657	473337
18.12282	652549
18.12907	1332334
18.13533	2916683
18.14158	5382770
18.14783	7386283
18.15410	7204598
18.16035	4587095
18.16660	1989684
18.17285	811623
18.17912	473787
18.18537	376911
18.19162	326550
18.19788	318779
18.20413	336002
18.21038	401698
18.21665	503862
18.22290	561281
18.22915	518316
18.23542	417628
18.24167	337348
18.24792	309075
18.25418	303270
18.26043	315522
18.26668	351481
18.27295	432107
18.27920	559668
18.28545	803256
18.29172	1320654
18.29797	2133720
18.30422	2860091
18.31048	2729938
18.31673	1816387
18.32298	957073
18.32925	478845
18.33550	266903
18.34175	218441
18.34802	193075
18.35427	191755
18.36052	203506
18.36678	223647
18.37303	228423
18.37928	257471
18.38553	277660
18.39180	316665
18.39805	335177
18.40430	292389
18.41057	243026
18.41682	211645
18.42307	194302
18.42933	183544
18.43558	171002
18.44183	173361
18.44810	173222
18.45435	174256
18.46060	174554
18.46687	176349
18.47312	183266
18.47937	180497
18.48563	176361
18.49188	171327
18.49813	169346
18.50440	172966
18.51065	179816
18.51690	177450
18.52317	181020
18.52942	177748
18.53567	185180
18.54193	195108
18.54818	210636
18.55443	213544
18.56070	210521
18.56695	207522
18.57320	186826
18.57947	176922
18.58572	169532
18.59197	165822
18.59822	167924
18.60448	165518
18.61073	166189
18.61698	167753
18.62325	172349
18.62950	176693
18.63575	196077
18.64202	208599
18.64827	232417
18.65452	225447
18.66078	207832
18.66703	192830
18.67328	185862
18.67955	177908
18.68580	175347
18.69205	172818
18.69832	172393
18.70457	185068
18.71082	216637
18.71708	247463
18.72333	240701
18.72958	223728
18.73585	190767
18.74210	166756
18.74835	158834
18.75462	155557
18.76087	154667
18.76712	154986
18.77338	160211
18.77963	152544
18.78588	160307
18.79215	157057
18.79840	160209
18.80465	161462
18.81092	164340
18.81717	165544
18.82342	170618
18.82967	170627
18.83593	173047
18.84218	184937
18.84843	234044
18.85470	385421
18.86095	870189
18.86720	2183051
18.87347	4970586
18.87972	9325320
18.88597	1.347036E+07
18.89223	1.494493E+07
18.89848	1.313748E+07
18.90473	1.019899E+07
18.91100	7051355
18.91725	4017899
18.92350	1704718
18.92977	795873
18.93602	644617
18.94227	682866
18.94853	677530
18.95478	552555
18.96103	376266
18.96730	244357
18.97355	191188
18.97980	173360
18.98607	168037
18.99232	163615
18.99857	169569
19.00483	178669
19.01108	187962
19.01733	187235
19.02360	185995
19.02985	187779
19.03610	195166
19.04235	202806
19.04862	221008
19.05487	225105
19.06112	207391
19.06738	179063
19.07363	160660
19.07988	153348
19.08615	151306
19.09240	152606
19.09865	163345
19.10492	171364
19.11117	178048
19.11742	175413
19.12368	177382
19.12993	191183
19.13618	202907
19.14245	204074
19.14870	192090
19.15495	187233
19.16122	176613
19.16747	170870
19.17372	160038
19.17998	160676
19.18623	161485
19.19248	157726
19.19875	156139
19.20500	147263
19.21125	137638
19.21752	130619
19.22377	129212
19.23002	130268
19.23628	132959
19.24253	134774
19.24878	137490
19.25505	139402
19.26130	137934
19.26755	134270
19.27380	135234
19.28007	131127
19.28632	142484
19.29257	139004
19.29883	142844
19.30508	133350
19.31133	124188
19.31760	118002
19.32385	123430
19.33010	124313
19.33637	140916
19.34262	151758
19.34887	167428
19.35513	174195
19.36138	171642
19.36763	168128
19.37390	159165
19.38015	164912
19.38640	173872
19.39267	185065
19.39892	202136
19.40517	212343
19.41143	191563
19.41768	163195
19.42393	140682
19.43020	132594
19.43645	126319
19.44270	129047
19.44897	130334
19.45522	128153
19.46147	127991
19.46773	122579
19.47398	124792
19.48023	122022
19.48648	125201
19.49275	128100
19.49900	137043
19.50525	153503
19.51152	172427
19.51777	187633
19.52402	192724
19.53028	182279
19.53653	159525
19.54278	149802
19.54905	152344
19.55530	152825
19.56155	146826
19.56782	139933
19.57407	135079
19.58032	128986
19.58658	129873
19.59283	126784
19.59908	128240
19.60535	127849
19.61160	122277
19.61785	123927
19.62412	130854
19.63037	144584
19.63662	158278
19.64288	159393
19.64913	150307
19.65538	138837
19.66165	140401
19.66790	164768
19.67415	207000
19.68042	245379
19.68667	261108
19.69292	252763
19.69918	231817
19.70543	220990
19.71168	211132
19.71793	201573
19.72420	175239
19.73045	159658
19.73670	149792
19.74297	151209
19.74922	159150
19.75547	150308
19.76173	150207
19.76798	144960
19.77423	153280
19.78050	153024
19.78675	148531
19.79300	140021
19.79927	142947
19.80552	141355
19.81177	133968
19.81803	132716
19.82428	132753
19.83053	127698
19.83680	126806
19.84305	127029
19.84930	131551
19.85557	144138
19.86182	171926
19.86807	182846
19.87433	186642
19.88058	175386
19.88683	158733
19.89310	161863
19.89935	236802
19.90560	578213
19.91187	1747568
19.91812	4150758
19.92437	7161053
19.93062	9501822
19.93688	8389940
19.94313	5244065
19.94938	1955373
19.95565	609144
19.96190	265294
19.96815	208272
19.97442	206271
19.98067	209704
19.98692	200391
19.99318	176907
19.99943	156314
20.00568	147404
20.01195	143115
20.01820	136187
20.02445	131099
20.03072	131611
20.03697	131535
20.04322	130794
20.04948	130284
20.05573	133773
20.06198	129153
20.06825	128790
20.07450	129124
20.08075	137816
20.08702	150465
20.09327	173381
20.09952	178978
20.10578	168820
20.11203	153474
20.11828	137325
20.12455	128693
20.13080	124706
20.13705	123720
20.14332	123775
20.14957	139467
20.15582	134051
20.16207	134087
20.16833	142208
20.17458	137953
20.18083	137715
20.18710	135941
20.19335	131912
20.19960	137237
20.20587	140448
20.21212	171586
20.21837	229420
20.22463	363373
20.23088	518921
20.23713	591967
20.24340	530483
20.24965	392893
20.25590	250943
20.26217	178923
20.26842	156439
20.27467	156100
20.28093	169140
20.28718	207496
20.29343	288304
20.29970	444124
20.30595	582835
20.31220	592894
20.31847	463946
20.32472	311447
20.33097	220023
20.33723	174912
20.34348	167156
20.34973	167066
20.35600	165785
20.36225	155649
20.36850	149210
20.37475	150402
20.38102	148724
20.38727	146129
20.39352	143135
20.39978	138478
20.40603	144493
20.41228	148431
20.41855	171490
20.42480	271251
20.43105	480824
20.43732	800976
20.44357	1040090
20.44982	1026973
20.45608	786849
20.46233	472904
20.46858	342684
20.47485	328423
20.48110	385723
20.48735	413984
20.49362	381463
20.49987	305909
20.50612	228800
20.51238	184861
20.51863	175488
20.52488	169337
20.53115	174865
20.53740	173088
20.54365	181903
20.54992	202084
20.55617	214304
20.56242	215721
20.56868	203958
20.57493	240219
20.58118	332161
20.58743	482218
20.59370	621813
20.59995	649948
20.60620	458119
20.61247	273517
20.61872	206419
20.62497	182686
20.63123	181685
20.63748	180472
20.64373	174783
20.65000	161107
20.65625	160399
20.66250	157030
20.66877	158179
20.67502	154660
20.68127	153284
20.68753	147086
20.69378	142726
20.70003	156317
20.70630	191082
20.71255	276662
20.71880	415348
20.72507	539311
20.73132	527866
20.73757	420110
20.74383	316188
20.75008	268778
20.75633	317984
20.76260	427197
20.76885	530401
20.77510	581402
20.78137	499860
20.78762	360146
20.79387	269894
20.80013	201921
20.80638	180689
20.81263	168774
20.81888	158037
20.82515	157686
20.83140	151532
20.83765	148494
20.84392	142947
20.85017	151194
20.85642	150446
20.86268	153546
20.86893	149399
20.87518	145484
20.88145	145649
20.88770	139588
20.89395	136454
20.90022	140214
20.90647	139992
20.91272	137966
20.91898	149549
20.92523	182452
20.93148	289686
20.93775	492454
20.94400	770478
20.95025	884926
20.95652	815689
20.96277	606268
20.96902	439101
20.97528	281044
20.98153	226525
20.98778	193657
20.99405	171780
21.00030	166327
21.00655	169969
21.01282	174806
21.01907	177337
21.02532	170449
21.03157	174482
21.03783	184372
21.04408	187385
21.05033	177979
21.05660	165653
21.06285	149741
21.06910	151605
21.07537	164005
21.08162	168010
21.08787	169699
21.09413	169307
21.10038	162250
21.10663	154201
21.11290	154417
21.11915	160612
21.12540	162891
21.13167	158361
21.13792	145284
21.14417	139451
21.15043	142628
21.15668	134733
21.16293	133425
21.16920	128068
21.17545	131883
21.18170	136365
21.18797	140978
21.19422	157434
21.20047	161856
21.20673	170312
21.21298	177652
21.21923	182431
21.22550	166870
21.23175	152877
21.23800	148405
21.24425	171007
21.25052	173947
21.25677	168811
21.26302	168902
21.26928	164210
21.27553	168154
21.28178	186563
21.28805	192508
21.29430	198713
21.30055	199072
21.30682	192427
21.31307	196144
21.31932	223818
21.32558	271534
21.33183	303003
21.33808	276034
21.34435	224136
21.35060	178974
21.35685	172082
21.36312	179500
21.36937	201840
21.37562	198044
21.38188	193518
21.38813	183873
21.39438	181905
21.40065	179763
21.40690	209980
21.41315	293340
21.41942	447500
21.42567	604039
21.43192	673903
21.43818	558878
21.44443	393442
21.45068	285478
21.45695	258794
21.46320	256742
21.46945	257212
21.47570	243038
21.48197	213034
21.48822	191076
21.49447	175521
21.50073	168066
21.50698	162047
21.51323	157265
21.51950	157601
21.52575	158720
21.53200	166005
21.53827	172306
21.54452	172560
21.55077	174579
21.55703	176737
21.56328	187641
21.56953	219308
21.57580	254587
21.58205	256431
21.58830	241532
21.59457	213385
21.60082	192907
21.60707	183074
21.61333	173350
21.61958	164638
21.62583	163154
21.63210	156910
21.63835	150687
21.64460	152337
21.65087	155941
21.65712	160953
21.66337	161477
21.66963	167173
21.67588	163539
21.68213	171098
21.68838	169462
21.69465	161020
21.70090	155254
21.70715	153752
21.71342	156641
21.71967	168272
21.72592	179831
21.73218	183787
21.73843	185356
21.74468	171942
21.75095	169510
21.75720	171968
21.76345	166124
21.76972	162993
21.77597	160317
21.78222	163944
21.78848	164625
21.79473	178068
21.80098	192352
21.80725	208841
21.81350	229399
21.81975	240162
21.82602	210556
21.83227	184698
21.83852	171637
21.84478	167449
21.85103	167002
21.85728	160281
21.86355	163915
21.86980	160844
21.87605	163413
21.88232	162644
21.88857	164500
21.89482	173810
21.90108	215675
21.90733	265114
21.91358	302215
21.91983	285253
21.92610	262044
21.93235	232079
21.93860	227374
21.94487	211507
21.95112	195398
21.95737	184538
21.96363	180122
21.96988	180387
21.97613	194488
21.98240	197989
21.98865	196440
21.99490	191767
22.00117	197560
22.00742	222497
22.01367	236456
22.01993	236668
22.02618	225812
22.03243	218386
22.03870	219999
22.04495	236621
22.05120	244194
22.05747	256761
22.06372	273152
22.06997	311735
22.07623	342170
22.08248	320699
22.08873	276464
22.09500	228119
22.10125	200261
22.10750	185017
22.11377	191773
22.12002	196453
22.12627	199199
22.13252	194058
22.13878	181126
22.14503	174981
22.15128	176704
22.15755	182792
22.16380	184788
22.17005	181586
22.17632	181506
22.18257	183240
22.18882	176720
22.19508	178347
22.20133	176474
22.20758	178545
22.21385	188622
22.22010	195571
22.22635	213765
22.23262	227845
22.23887	273944
22.24512	333193
22.25138	401567
22.25763	428382
22.26388	425810
22.27015	383849
22.27640	339574
22.28265	313751
22.28892	298498
22.29517	273864
22.30142	247155
22.30768	225231
22.31393	202640
22.32018	194609
22.32645	191764
22.33270	185529
22.33895	208277
22.34522	308092
22.35147	607545
22.35772	1260450
22.36397	2096511
22.37023	2406854
22.37648	2036217
22.38273	1148534
22.38900	576732
22.39525	311222
22.40150	237085
22.40777	208441
22.41402	208996
22.42027	208369
22.42653	215335
22.43278	217994
22.43903	234206
22.44530	263861
22.45155	314917
22.45780	390511
22.46407	418548
22.47032	396960
22.47657	332647
22.48283	287188
22.48908	267444
22.49533	250363
22.50160	248754
22.50785	240198
22.51410	220285
22.52037	223568
22.52662	265219
22.53287	383012
22.53913	586981
22.54538	812920
22.55163	942310
22.55790	864381
22.56415	635125
22.57040	432708
22.57665	312049
22.58292	242497
22.58917	210555
22.59542	203251
22.60168	195868
22.60793	189801
22.61418	188052
22.62045	186941
22.62670	187054
22.63295	191651
22.63922	205616
22.64547	213275
22.65172	215185
22.65798	211567
22.66423	209140
22.67048	206827
22.67675	205654
22.68300	204824
22.68925	199813
22.69552	194252
22.70177	193670
22.70802	190697
22.71428	192768
22.72053	197310
22.72678	192684
22.73305	191443
22.73930	189399
22.74555	184837
22.75182	193683
22.75807	206457
22.76432	222411
22.77058	254930
22.77683	356898
22.78308	809931
22.78935	2351015
22.79560	5783628
22.80185	1.021216E+07
22.80810	1.282685E+07
22.81437	1.23195E+07
22.82062	8006887
22.82687	3230164
22.83313	1184028
22.83938	511881
22.84563	332139
22.85190	278997
22.85815	257242
22.86440	247250
22.87067	235047
22.87692	235504
22.88317	223615
22.88943	217682
22.89568	212568
22.90193	207574
22.90820	210772
22.91445	199598
22.92070	203303
22.92697	200616
22.93322	199181
22.93947	206005
22.94573	203034
22.95198	207887
22.95823	211912
22.96450	218551
22.97075	233814
22.97700	262178
22.98327	269955
22.98952	253327
22.99577	233934
23.00203	221512
23.00828	201934
23.01453	200713
23.02078	196277
23.02705	194188
23.03330	198764
23.03955	201443
23.04582	197336
23.05207	196687
23.05832	193029
23.06458	200414
23.07083	207924
23.07708	212131
23.08335	212128
23.08960	207724
23.09585	199961
23.10212	193472
23.10837	194718
23.11462	190236
23.12088	185777
23.12713	185343
23.13338	188487
23.13965	181036
23.14590	180213
23.15215	189701
23.15842	183887
23.16467	181224
23.17092	182865
23.17718	186873
23.18343	188444
23.18968	187114
23.19595	187720
23.20220	192988
23.20845	195534
23.21472	193747
23.22097	191498
23.22722	195271
23.23347	208376
23.23973	225808
23.24598	247698
23.25223	246178
23.25850	236374
23.26475	216057
23.27100	201420
23.27727	196272
23.28352	198487
23.28977	208951
23.29603	206200
23.30228	205409
23.30853	202289
23.31480	200546
23.32105	198143
23.32730	192530
23.33357	191682
23.33982	191264
23.34607	183326
23.35233	185819
23.35858	181366
23.36483	185940
23.37110	189143
23.37735	202741
23.38360	219944
23.38987	230902
23.39612	231603
23.40237	214716
23.40863	202730
23.41488	190335
23.42113	188246
23.42740	190867
23.43365	184733
23.43990	188645
23.44617	187690
23.45242	200229
23.45867	193629
23.46492	198233
23.47118	204322
23.47743	224113
23.48368	223381
23.48995	225195
23.49620	233874
23.50245	265645
23.50872	329122
23.51497	398507
23.52122	422362
23.52748	410344
23.53373	356382
23.53998	276057
23.54625	241058
23.55250	266332
23.55875	392093
23.56502	733076
23.57127	1324216
23.57752	2066743
23.58378	2467024
23.59003	2410508
23.59628	1871451
23.60255	1408447
23.60880	997911
23.61505	636537
23.62132	422723
23.62757	314849
23.63382	264086
23.64008	240225
23.64633	228738
23.65258	217912
23.65885	208707
23.66510	210726
23.67135	191966
23.67760	208849
23.68387	203353
23.69012	224057
23.69637	231297
23.70263	229751
23.70888	237179
23.71513	262777
23.72140	300416
23.72765	336968
23.73390	345114
23.74017	317042
23.74642	280010
23.75267	249178
23.75893	233149
23.76518	229045
23.77143	225801
23.77770	221869
23.78395	223509
23.79020	220387
23.79647	230760
23.80272	222095
23.80897	225786
23.81523	220095
23.82148	220877
23.82773	206884
23.83400	208555
23.84025	224255
23.84650	205707
23.85277	219908
23.85902	196153
23.86527	203664
23.87153	190494
23.87778	201053
23.88403	202926
23.89028	204071
23.89655	201809
23.90280	195528
23.90905	200571
23.91532	197969
23.92157	203141
23.92782	208639
23.93408	205222
23.94033	228300
23.94658	311790
23.95285	545179
23.95910	1020100
23.96535	1608401
23.97162	1868388
23.97787	1667059
23.98412	1176587
23.99038	833260
23.99663	636151
24.00288	496721
24.00915	390581
24.01540	307143
24.02165	267188
24.02792	243732
24.03417	236430
24.04042	229643
24.04668	235167
24.05293	247891
24.05918	272411
24.06545	298006
24.07170	317363
24.07795	312970
24.08422	298787
24.09047	278098
24.09672	266649
24.10298	263586
24.10923	273477
24.11548	283337
24.12173	281828
24.12800	277929
24.13425	257245
24.14050	247858
24.14677	240413
24.15302	247613
24.15927	259863
24.16553	283955
24.17178	335671
24.17803	409140
24.18430	535361
24.19055	794123
24.19680	1534685
24.20307	3747102
24.20932	7992780
24.21557	1.388956E+07
24.22183	2.284998E+07
24.22808	3.073297E+07
24.23433	3.667878E+07
24.24060	4.21843E+07
24.24685	4.433284E+07
24.25310	4.490588E+07
24.25937	4.264192E+07
24.26562	2.398009E+07
24.27187	6453890
24.27813	3227600
24.28438	2586119
24.29063	2250374
24.29690	2087861
24.30315	1957694
24.30940	1941883
24.31567	1900178
24.32192	1878669
24.32817	1983459
24.33442	2122156
24.34068	2124600
24.34693	2250781
24.35318	2285136
24.35945	2361611
24.36570	2435626
24.37195	2388817
24.37822	2413213
24.38447	2289640
24.39072	2245197
24.39698	2178017
24.40323	1999692
24.40948	1881227
24.41575	1797050
24.42200	1739615
24.42825	1617149
24.43452	1560507
24.44077	1453652
24.44702	1380770
24.45328	1308043
24.45953	1273169
24.46578	1187839
24.47205	1134229
24.47830	1094926
24.48455	1059555
24.49082	1028512
24.49707	997972
24.50332	986876
24.50958	943133
24.51583	926379
24.52208	884674
24.52835	844370
24.53460	828805
24.54085	795303
24.54710	754584
24.55337	714729
24.55962	699796
24.56587	731550
24.57213	792390
24.57838	869862
24.58463	897872
24.59090	869649
24.59715	767199
24.60340	655861
24.60967	552257
24.61592	480694
24.62217	445583
24.62843	423074
24.63468	412678
24.64093	413646
24.64720	425807
24.65345	423287
24.65970	400971
24.66597	368846
24.67222	332647
24.67847	293465
24.68473	275627
24.69098	260210
24.69723	256751
24.70350	248127
24.70975	233458
24.71600	231553
24.72227	223358
24.72852	220449
24.73477	220950
24.74103	219973
24.74728	215786
24.75353	214330
24.75980	212751
24.76605	225431
24.77230	229018
24.77855	223244
24.78482	212360
24.79107	195768
24.79732	182024
24.80358	169910
24.80983	170073
24.81608	162832
24.82235	158100
24.82860	155920
24.83485	157041
24.84112	152175
24.84737	151111
24.85362	155479
24.85988	161475
24.86613	166028
24.87238	195473
24.87865	246341
24.88490	321882
24.89115	392426
24.89742	408487
24.90367	345488
24.90992	280464
24.91618	258591
24.92243	253313
24.92868	245605
24.93495	230684
24.94120	207337
24.94745	194336
24.95372	187112
24.95997	186072
24.96622	179368
24.97248	171166
24.97873	158821
24.98498	151911
24.99123	141621
24.99750	140041
25.00375	136203
25.01000	137277
25.01627	137786
25.02252	133310
25.02877	134620
25.03503	131917
25.04128	131009
25.04753	132235
25.05380	130015
25.06005	128123
25.06630	124437
25.07257	127675
25.07882	124509
25.08507	126213
25.09133	128822
25.09758	129666
25.10383	125931
25.11010	127634
25.11635	125319
25.12260	126535
25.12887	123954
25.13512	127105
25.14137	123875
25.14763	124527
25.15388	123681
25.16013	129665
25.16640	136194
25.17265	157965
25.17890	192307
25.18517	236595
25.19142	254176
25.19767	239775
25.20393	212616
25.21018	171751
25.21643	150391
25.22268	135915
25.22895	131788
25.23520	125635
25.24145	125425
25.24772	125546
25.25397	129628
25.26022	124143
25.26648	129118
25.27273	135549
25.27898	154254
25.28525	185498
25.29150	230873
25.29775	251982
25.30402	237077
25.31027	205985
25.31652	176620
25.32278	157459
25.32903	147615
25.33528	143926
25.34155	149315
25.34780	140222
25.35405	139875
25.36032	133892
25.36657	134498
25.37282	132760
25.37908	134603
25.38533	128821
25.39158	141040
25.39785	152556
25.40410	172820
25.41035	181809
25.41662	180899
25.42287	166275
25.42912	148816
25.43537	145791
25.44163	137719
25.44788	132773
25.45413	131294
25.46040	128350
25.46665	129287
25.47290	133954
25.47917	147496
25.48542	183718
25.49167	235684
25.49793	292805
25.50418	329785
25.51043	309522
25.51670	273262
25.52295	253845
25.52920	262522
25.53547	323142
25.54172	400433
25.54797	407233
25.55423	335508
25.56048	254495
25.56673	180970
25.57300	155206
25.57925	135661
25.58550	133308
25.59177	130955
25.59802	136948
25.60427	141351
25.61053	142290
25.61678	138036
25.62303	130892
25.62930	127290
25.63555	123718
25.64180	118676
25.64807	116310
25.65432	115365
25.66057	116159
25.66682	115794
25.67308	120465
25.67933	121170
25.68558	119015
25.69185	118265
25.69810	117662
25.70435	117487
25.71062	111784
25.71687	116638
25.72312	117066
25.72938	122736
25.73563	132662
25.74188	140438
25.74815	140225
25.75440	135413
25.76065	124480
25.76692	122701
25.77317	120758
25.77942	120544
25.78568	119136
25.79193	114144
25.79818	115441
25.80445	114355
25.81070	114609
25.81695	111343
25.82322	114372
25.82947	114247
25.83572	107439
25.84198	112187
25.84823	114054
25.85448	112593
25.86075	115999
25.86700	114889
25.87325	113533
25.87950	113349
25.88577	107722
25.89202	109499
25.89827	107847
25.90453	109208
25.91078	110160
25.91703	113715
25.92330	117477
25.92955	120550
25.93580	120153
25.94207	123486
25.94832	117371
25.95457	116334
25.96083	110328
25.96708	110430
25.97333	109503
25.97960	108610
25.98585	108286
25.99210	109531
25.99837	109808
26.00462	113074
26.01087	110681
26.01713	109249
26.02338	113052
26.02963	111744
26.03590	114118
26.04215	112713
26.04840	108966
26.05467	112676
26.06092	114748
26.06717	111178
26.07343	109874
26.07968	104965
26.08593	111553
26.09220	109268
26.09845	109307
26.10470	109756
26.11095	112024
26.11722	106148
26.12347	105764
26.12972	107290
26.13598	111874
26.14223	111077
26.14848	108605
26.15475	109512
26.16100	112376
26.16725	113538
26.17352	116023
26.17977	115050
26.18602	112649
26.19228	115174
26.19853	112552
26.20478	108806
26.21105	111276
26.21730	112510
26.22355	114262
26.22982	116399
26.23607	115714
26.24232	112533
26.24858	115111
26.25483	116021
26.26108	117455
26.26735	112956
26.27360	112937
26.27985	115181
26.28612	114930
26.29237	115380
26.29862	117405
26.30488	113692
26.31113	115524
26.31738	115745
26.32363	115457
26.32990	115931
26.33615	122379
26.34240	126938
26.34867	133156
26.35492	140820
26.36117	147992
26.36743	147471
26.37368	144939
26.37993	140943
26.38620	129769
26.39245	127216
26.39870	128098
26.40497	126179
26.41122	130220
26.41747	134724
26.42373	126458
26.42998	123465
26.43623	125478
26.44250	124748
26.44875	121892
26.45500	125965
26.46127	127661
26.46752	126756
26.47377	130289
26.48003	127042
26.48628	134401
26.49253	130321
26.49880	136162
26.50505	133677
26.51130	126743
26.51757	138692
26.52382	152421
26.53007	157769
26.53632	165669
26.54258	160923
26.54883	146672
26.55508	135358
26.56135	132825
26.56760	137297
26.57385	132637
26.58012	135116
26.58637	130610
26.59262	136937
26.59888	140244
26.60513	155885
26.61138	162519
26.61765	161146
26.62390	164443
26.63015	150249
26.63642	146976
26.64267	142681
26.64892	148592
26.65518	167991
26.66143	190566
26.66768	202157
26.67395	205613
26.68020	199998
26.68645	193628
26.69272	209210
26.69897	234732
26.70522	238470
26.71148	217015
26.71773	192671
26.72398	166663
26.73025	154547
26.73650	150018
26.74275	160753
26.74902	186143
26.75527	243457
26.76152	326062
26.76777	396297
26.77403	407508
26.78028	338217
26.78653	297156
26.79280	269925
26.79905	261183
26.80530	234389
26.81157	216316
26.81782	193176
26.82407	187900
26.83033	191225
26.83658	198967
26.84283	195786
26.84910	191504
26.85535	185417
26.86160	192443
26.86787	208369
26.87412	244538
26.88037	301838
26.88663	374084
26.89288	490848
26.89913	840535
26.90540	1877255
26.91165	4391618
26.91790	8557706
26.92417	1.438458E+07
26.93042	1.998396E+07
26.93667	2.410653E+07
26.94293	2.486163E+07
26.94918	1.709994E+07
26.95543	7546914
26.96170	3298975
26.96795	1651324
26.97420	1023513
26.98045	658891
26.98672	462023
26.99297	375741
26.99922	371223
27.00548	494539
27.01173	770443
27.01798	1293294
27.02425	1618723
27.03050	1619962
27.03675	1252891
27.04302	837281
27.04927	545327
27.05552	431964
27.06178	397741
27.06803	364422
27.07428	333247
27.08055	297164
27.08680	270416
27.09305	255724
27.09932	247389
27.10557	236286
27.11182	248247
27.11808	275168
27.12433	356707
27.13058	460195
27.13685	559724
27.14310	548971
27.14935	468489
27.15562	361091
27.16187	298135
27.16812	272586
27.17438	279023
27.18063	264289
27.18688	261070
27.19313	246533
27.19940	242770
27.20565	238682
27.21190	237624
27.21817	230078
27.22442	225692
27.23067	219550
27.23693	227800
27.24318	240132
27.24943	257110
27.25570	252407
27.26195	250513
27.26820	234872
27.27447	222153
27.28072	217433
27.28697	221368
27.29323	217041
27.29948	217801
27.30573	229077
27.31200	220226
27.31825	228035
27.32450	218050
27.33077	224721
27.33702	220767
27.34327	229675
27.34953	243912
27.35578	246056
27.36203	248530
27.36830	239687
27.37455	231261
27.38080	222659
27.38707	226147
27.39332	243330
27.39957	267475
27.40583	311947
27.41208	324262
27.41833	316882
27.42458	286012
27.43085	265205
27.43710	250081
27.44335	237892
27.44962	221320
27.45587	212718
27.46212	208469
27.46838	211918
27.47463	205415
27.48088	208189
27.48715	213486
27.49340	211170
27.49965	203533
27.50592	198005
27.51217	194546
27.51842	195572
27.52468	200560
27.53093	205464
27.53718	206998
27.54345	208236
27.54970	207915
27.55595	205515
27.56222	201228
27.56847	205272
27.57472	195250
27.58098	204023
27.58723	197197
27.59348	202023
27.59975	203700
27.60600	210480
27.61225	205190
27.61852	207195
27.62477	212243
27.63102	207507
27.63727	200767
27.64353	209630
27.64978	202864
27.65603	207362
27.66230	204907
27.66855	214659
27.67480	208231
27.68107	218949
27.68732	226932
27.69357	217386
27.69983	215322
27.70608	224639
27.71233	234038
27.71860	233935
27.72485	242815
27.73110	238779
27.73737	225180
27.74362	226439
27.74987	230922
27.75613	232562
27.76238	245178
27.76863	240692
27.77490	229734
27.78115	222365
27.78740	214772
27.79367	217322
27.79992	214158
27.80617	214082
27.81243	211563
27.81868	208824
27.82493	215067
27.83120	219618
27.83745	220489
27.84370	235802
27.84997	238799
27.85622	261066
27.86247	266385
27.86872	266171
27.87498	260175
27.88123	247432
27.88748	230443
27.89375	231165
27.90000	229812
27.90625	220054
27.91252	224856
27.91877	226927
27.92502	218750
27.93128	221085
27.93753	228217
27.94378	220715
27.95005	220931
27.95630	228807
27.96255	226039
27.96882	229701
27.97507	235234
27.98132	235912
27.98758	246547
27.99383	240680
28.00008	241774
28.00635	230309
28.01260	234228
28.01885	230867
28.02512	228408
28.03137	220657
28.03762	219958
28.04388	223813
28.05013	225848
28.05638	229923
28.06265	229137
28.06890	226652
28.07515	226127
28.08140	219317
28.08767	229899
28.09392	231885
28.10017	230218
28.10643	221958
28.11268	224907
28.11893	224558
28.12520	234582
28.13145	223166
28.13770	227662
28.14397	228458
28.15022	236413
28.15647	235008
28.16273	226213
28.16898	224583
28.17523	228020
28.18150	225846
28.18775	236809
28.19400	223378
28.20027	226541
28.20652	229446
28.21277	240089
28.21903	228503
28.22528	231302
28.23153	241062
28.23780	241978
28.24405	241131
28.25030	243947
28.25657	252994
28.26282	256009
28.26907	263083
28.27533	260034
28.28158	257174
28.28783	299753
28.29410	328019
28.30035	328478
28.30660	332495
28.31285	346227
28.31912	382095
28.32537	359587
28.33162	386270
28.33788	391938
28.34413	390270
28.35038	391270
28.35665	379955
28.36290	417615
28.36915	402884
28.37542	417017
28.38167	407459
28.38792	415635
28.39418	400112
28.40043	437817
28.40668	421413
28.41295	416007
28.41920	406660
28.42545	383722
28.43172	382018
28.43797	373049
28.44422	355804
28.45048	353806
28.45673	336637
28.46298	336114
28.46925	345392
28.47550	345978
28.48175	323639
28.48802	317531
28.49427	314325
28.50052	307610
28.50678	307027
28.51303	308714
28.51928	322531
28.52553	321887
28.53180	319813
28.53805	323842
28.54430	316903
28.55057	317163
28.55682	316589
28.56307	310869
28.56933	309920
28.57558	320988
28.58183	319404
28.58810	317532
28.59435	321770
28.60060	308088
28.60687	319450
28.61312	318004
28.61937	316049
28.62563	305620
28.63188	316067
28.63813	300838
28.64440	303865
28.65065	318431
28.65690	311734
28.66317	302895
28.66942	304826
28.67567	295378
28.68193	291851
28.68818	283447
28.69443	283869
28.70070	296819
28.70695	292822
28.71320	282636
28.71947	288439
28.72572	284800
28.73197	289794
28.73823	280501
28.74448	286757
28.75073	289834
28.75698	284805
28.76325	293227
28.76950	302854
28.77575	291564
28.78202	283107
28.78827	280384
28.79452	280400
28.80078	294631
28.80703	280805
28.81328	284356
28.81955	290051
28.82580	289483
28.83205	290475
28.83832	280373
28.84457	278218
28.85082	280615
28.85708	285263
28.86333	288692
28.86958	297139
28.87585	286539
28.88210	284686
28.88835	275889
28.89462	278427
28.90087	290846
28.90712	282197
28.91338	274651
28.91963	268836
28.92588	261524
28.93215	271456
28.93840	263171
28.94465	303966
28.95092	292441
28.95717	293444
28.96342	302001
28.96967	294131
28.97593	288830
28.98218	295881
28.98843	293162
28.99470	307611
29.00095	307920
29.00720	297539
29.01347	293953
29.01972	292919
29.02597	301316
29.03223	303991
29.03848	299562
29.04473	302588
29.05100	292194
29.05725	290374
29.06350	275530
29.06977	272308
29.07602	277699
29.08227	280970
29.08853	272111
29.09478	286816
29.10103	272834
29.10730	271431
29.11355	269959
29.11980	271355
29.12607	276791
29.13232	272196
29.13857	272572
29.14483	272871
29.15108	267787
29.15733	280266
29.16360	277472
29.16985	289124
29.17610	293659
29.18235	290796
29.18862	288580
29.19487	304313
29.20112	298113
29.20738	300627
29.21363	277880
29.21988	295229
29.22615	293647
29.23240	301256
29.23865	299544
29.24492	304420
29.25117	291149
29.25742	291406
29.26368	283094
29.26993	304871
29.27618	278017
29.28245	272267
29.28870	280468
29.29495	281491
29.30122	267272
29.30747	280167
29.31372	276726
29.31998	272521
29.32623	266621
29.33248	282452
29.33875	262044
29.34500	289498
29.35125	291498
29.35752	300534
29.36377	290744
29.37002	290775
29.37628	298213
29.38253	285327
29.38878	291500
29.39505	300528
29.40130	298572
29.40755	289582
29.41380	286485
29.42007	286760
29.42632	295417
29.43257	297279
29.43883	292213
29.44508	284057
29.45133	300544
29.45760	284672
29.46385	301180
29.47010	298036
29.47637	290582
29.48262	285602
29.48887	282228
29.49513	294358
29.50138	290510
29.50763	295692
29.51390	286312
29.52015	287657
29.52640	286386
29.53267	294657
29.53892	285258
29.54517	281801
29.55143	298677
29.55768	297416
29.56393	281559
29.57020	283402
29.57645	285658
29.58270	290702
29.58897	295458
29.59522	295949
29.60147	296222
29.60773	290289
29.61398	292920
29.62023	280642
29.62648	285731
29.63275	282916
29.63900	290810
29.64525	285446
29.65152	293673
29.65777	294656
29.66402	291651
29.67028	290281
29.67653	286048
29.68278	282084
29.68905	278766
29.69530	282731
29.70155	283283
29.70782	280812
29.71407	292307
29.72032	284334
29.72658	293112
29.73283	281927
29.73908	293093
29.74535	279036
29.75160	292577
29.75785	278512
29.76412	278191
29.77037	289120
29.77662	279657
29.78288	281412
29.78913	288959
29.79538	291782
29.80165	285944
29.80790	279986
29.81415	277524
29.82042	281753
29.82667	286408
29.83292	294008
29.83917	283369
29.84543	279697
29.85168	290745
29.85793	288142
29.86420	281513
29.87045	290934
29.87670	292160
29.88297	291002
29.88922	286254
29.89547	276296
29.90173	280759
29.90798	291720
29.91423	286534
29.92050	278388
29.92675	279374
29.93300	282129
29.93927	285834
29.94552	286521
29.95177	275120
29.95803	276480
29.96428	275980
29.97053	274936
29.97680	276281
29.98305	274033
29.98930	288999
29.99557	285070
30.00182	275124
30.00807	285358
30.01433	276299
30.02058	271286
30.02683	282586
30.03310	274816
30.03935	285951
30.04560	272247
30.05187	278910
30.05812	271752
30.06437	271795
30.07062	283486
30.07688	282892
30.08313	281105
30.08938	271734
30.09565	269117
30.10190	268375
30.10815	274678
30.11442	270490
30.12067	270020
30.12692	281710
30.13318	281574
30.13943	272464
30.14568	284142
30.15195	280245
30.15820	268373
30.16445	279096
30.17072	273641
30.17697	270597
30.18322	269792
30.18948	272597
30.19573	281174
30.20198	280468
30.20825	268802
30.21450	278269
30.22075	284119
30.22702	276643
30.23327	280303
30.23952	276878
30.24578	273103
30.25203	267065
30.25828	279740
30.26455	278867
30.27080	281094
30.27705	276789
30.28330	268129
30.28957	277988
30.29582	268872
30.30207	271047
30.30833	267051
30.31458	277772
30.32083	281527
30.32710	273969
30.33335	280504
30.33960	268259
30.34587	264885
30.35212	273878
30.35837	275073
30.36463	269543
30.37088	270524
30.37713	265160
30.38340	261980
30.38965	274527
30.39590	277604
30.40217	268283
30.40842	267920
30.41467	262780
30.42093	275788
30.42718	276907
30.43343	271693
30.43970	273539
30.44595	273938
30.45220	274012
30.45847	268445
30.46472	276707
30.47097	271863
30.47723	270955
30.48348	272446
30.48973	275175
30.49600	263973
30.50225	274262
30.50850	269812
30.51475	262461
30.52102	259501
30.52727	265795
30.53352	268940
30.53978	274047
30.54603	260747
30.55228	272865
30.55855	258239
30.56480	262146
30.57105	267232
30.57732	268250
30.58357	262195
30.58982	267954
30.59608	265904
30.60233	261165
30.60858	263584
30.61485	249053
30.62110	250852
30.62735	245934
30.63362	255327
30.63987	244023
30.64612	252352
30.65238	253605
30.65863	247484
30.66488	245200
30.67115	241409
30.67740	250497
30.68365	254596
30.68992	247222
30.69617	254465
30.70242	251602
30.70868	243633
30.71493	244357
30.72118	243126
30.72743	249068
30.73370	247045
30.73995	243578
30.74620	253965
30.75247	255059
30.75872	239210
30.76497	256179
30.77123	255306
30.77748	243221
30.78373	249616
30.79000	255654
30.79625	249639
30.80250	244274
30.80877	248831
30.81502	244520
30.82127	249361
30.82753	242658
30.83378	245186
30.84003	244285
30.84630	240505
30.85255	228183
30.85880	203892
30.86507	206977
30.87132	208776
30.87757	200953
30.88383	206059
30.89008	205205
30.89633	208527
30.90260	201391
30.90885	203177
30.91510	206266
30.92137	203760
30.92762	197877
30.93387	204078
30.94013	199164
30.94638	199110
30.95263	197716
30.95888	202182
30.96515	201145
30.97140	206800
30.97765	204407
30.98392	197727
30.99017	209357
30.99642	203133
31.00268	210467
31.00893	212867
31.01518	206063
31.02145	210429
31.02770	200715
31.03395	201370
31.04022	206047
31.04647	202916
31.05272	207401
31.05898	199073
31.06523	198902
31.07148	199723
31.07775	207232
31.08400	198897
31.09025	206921
31.09652	200190
31.10277	206096
31.10902	198132
31.11528	205106
31.12153	200728
31.12778	197312
31.13405	196671
31.14030	195081
31.14655	205249
31.15282	202824
31.15907	200551
31.16532	197557
31.17157	194192
31.17783	193761
31.18408	204218
31.19033	204072
31.19660	197704
31.20285	194071
31.20910	203876
31.21537	200139
31.22162	200785
31.22787	203771
31.23413	202230
31.24038	192981
31.24663	195248
31.25290	195368
31.25915	204129
31.26540	205105
31.27167	200259
31.27792	202304
31.28417	195051
31.29043	193471
31.29668	196919
31.30293	195696
31.30920	200755
31.31545	196319
31.32170	197444
31.32797	196546
31.33422	202675
31.34047	202781
31.34673	201076
31.35298	193976
31.35923	196620
31.36550	198137
31.37175	202204
31.37800	204029
31.38427	199856
31.39052	205239
31.39677	199174
31.40302	197353
31.40928	202387
31.41553	202877
31.42178	204639
31.42805	194924
31.43430	202156
31.44055	198185
31.44682	195683
31.45307	200444
31.45932	197400
31.46558	195863
31.47183	200613
31.47808	197741
31.48435	198908
31.49060	190791
31.49685	200865
31.50312	201944
31.50937	189192
31.51562	203081
31.52188	196629
31.52813	197931
31.53438	200246
31.54065	192268
31.54690	194648
31.55315	190743
31.55942	194345
31.56567	193228
31.57192	192303
31.57818	198015
31.58443	194942
31.59068	192477
31.59695	192471
31.60320	196518
31.60945	196280
31.61570	191188
31.62197	189642
31.62822	188125
31.63447	191903
31.64073	196980
31.64698	194042
31.65323	197775
31.65950	188618
31.66575	198146
31.67200	190486
31.67827	200290
31.68452	188264
31.69077	190720
31.69703	196515
31.70328	190644
31.70953	192955
31.71580	193681
31.72205	194108
31.72830	190188
31.73457	183955
31.74082	191688
31.74707	195117
31.75333	186420
31.75958	194350
31.76583	193150
31.77210	191292
31.77835	188721
31.78460	195274
31.79087	195206
31.79712	187234
31.80337	190977
31.80963	188014
31.81588	189747
31.82213	190856
31.82838	194964
31.83465	187500
31.84090	188205
31.84715	192264
31.85342	186917
31.85967	187365
31.86592	196107
31.87218	184724
31.87843	183965
31.88468	193067
31.89095	186920
31.89720	185956
31.90345	186300
31.90972	191846
31.91597	192994
31.92222	188912
31.92848	186631
31.93473	190385
31.94098	191465
31.94725	186008
31.95350	183731
31.95975	188123
31.96602	185370
31.97227	188450
31.97852	185012
31.98478	191462
31.99103	191152
31.99728	195114
32.00355	179745
32.00980	188386
32.01605	185811
32.02232	193972
32.02857	186333
32.03482	190708
32.04108	190675
32.04733	192482
32.05358	191231
32.05983	184846
32.06610	186960
32.07235	191540
32.07860	184226
32.08487	189629
32.09112	192470
32.09737	189721
32.10363	191940
32.10988	184376
32.11613	184124
32.12240	185222
32.12865	186706
32.13490	185415
32.14117	187887
32.14742	187426
32.15367	184373
32.15993	190116
32.16618	186312
32.17243	186292
32.17870	188690
32.18495	182791
32.19120	191851
32.19747	188447
32.20372	188185
32.20997	182745
32.21623	187798
32.22248	182174
32.22873	189326
32.23500	193177
32.24125	184249
32.24750	181429
32.25377	184357
32.26002	190865
32.26627	189346
32.27252	191142
32.27878	183937
32.28503	188564
32.29128	182689
32.29755	179718
32.30380	181645
32.31005	189992
32.31632	185145
32.32257	188656
32.32882	184574
32.33508	182986
32.34133	189532
32.34758	183575
32.35385	182251
32.36010	189861
32.36635	186087
32.37262	189128
32.37887	178664
32.38512	180302
32.39138	180620
32.39763	184617
32.40388	180876
32.41015	181022
32.41640	186843
32.42265	184992
32.42892	183690
32.43517	186954
32.44142	185682
32.44768	186694
32.45393	179825
32.46018	179518
32.46645	180038
32.47270	181123
32.47895	178569
32.48520	182066
32.49147	176987
32.49772	187931
32.50397	182330
32.51023	191877
32.51648	185523
32.52273	185832
32.52900	187005
32.53525	188290
32.54150	184053
32.54777	181375
32.55402	177995
32.56027	181737
32.56653	179579
32.57278	186158
32.57903	185433
32.58530	178845
32.59155	186584
32.59780	185330
32.60407	182132
32.61032	185272
32.61657	185465
32.62283	180043
32.62908	175299
32.63533	179030
32.64160	180491
32.64785	183884
32.65410	186337
32.66037	183936
32.66662	187437
32.67287	180329
32.67913	182504
32.68538	186683
32.69163	177355
32.69790	175187
32.70415	181557
32.71040	176891
32.71665	172527
32.72292	178697
32.72917	177764
32.73542	186321
32.74168	183627
32.74793	176002
32.75418	177966
32.76045	181508
32.76670	180836
32.77295	184030
32.77922	173908
32.78547	174584
32.79172	178807
32.79798	173677
32.80423	180650
32.81048	177085
32.81675	176616
32.82300	182612
32.82925	176265
32.83552	175369
32.84177	178939
32.84802	180103
32.85428	175218
32.86053	174560
32.86678	175716
32.87305	172919
32.87930	174076
32.88555	174787
32.89182	177478
32.89807	174355
32.90432	173497
32.91058	180171
32.91683	181951
32.92308	181506
32.92935	182465
32.93560	175490
32.94185	176438
32.94810	179314
32.95437	181824
32.96062	176311
32.96687	174970
32.97313	178470
32.97938	181258
32.98563	181557
32.99190	181658
32.99815	175911
33.00440	172705
33.01067	181313
33.01692	179747
33.02317	182074
33.02943	179116
33.03568	175813
33.04193	175953
33.04820	171760
33.05445	171431
33.06070	172658
33.06697	177066
33.07322	176915
33.07947	171986
33.08573	174943
33.09198	176087
33.09823	178850
33.10450	181663
33.11075	174837
33.11700	182639
33.12327	180436
33.12952	177089
33.13577	184598
33.14203	185347
33.14828	191246
33.15453	189842
33.16078	190032
33.16705	191804
33.17330	188485
33.17955	187238
33.18582	191626
33.19207	184226
33.19832	182103
33.20458	178791
33.21083	183220
33.21708	175968
33.22335	173863
33.22960	178119
33.23585	172070
33.24212	174274
33.24837	176458
33.25462	172396
33.26088	175920
33.26713	176233
33.27338	177791
33.27965	179093
33.28590	173212
33.29215	168731
33.29842	174480
33.30467	175226
33.31092	173206
33.31718	171507
33.32343	172036
33.32968	176036
33.33595	173997
33.34220	176068
33.34845	179640
33.35472	175215
33.36097	171919
33.36722	177080
33.37348	180246
33.37973	177308
33.38598	176583
33.39223	174551
33.39850	172163
33.40475	172635
33.41100	174389
33.41727	175690
33.42352	172952
33.42977	176002
33.43603	171355
33.44228	170586
33.44853	169760
33.45480	177765
33.46105	170713
33.46730	171079
33.47357	171073
33.47982	168437
33.48607	169123
33.49233	172182
33.49858	169304
33.50483	175233
33.51110	169942
33.51735	172553
33.52360	174084
33.52987	174741
33.53612	168038
33.54237	175483
33.54863	173156
33.55488	169520
33.56113	172495
33.56740	174479
33.57365	168219
33.57990	172186
33.58617	174454
33.59242	173844
33.59867	174838
33.60492	175926
33.61118	176389
33.61743	168301
33.62368	172547
33.62995	176805
33.63620	165584
33.64245	175134
33.64872	173861
33.65497	176047
33.66122	167942
33.66748	173593
33.67373	169531
33.67998	173418
33.68625	161984
33.69250	172512
33.69875	173615
33.70502	166545
33.71127	171680
33.71752	171693
33.72378	169074
33.73003	174568
33.73628	171564
33.74255	164916
33.74880	168881
33.75505	169066
33.76132	171084
33.76757	170727
33.77382	165055
33.78008	173206
33.78633	173176
33.79258	167939
33.79885	169710
33.80510	165437
33.81135	171818
33.81760	171553
33.82387	164984
33.83012	171535
33.83637	169053
33.84263	169796
33.84888	172407
33.85513	170898
33.86140	167262
33.86765	172650
33.87390	166382
33.88017	165270
33.88642	165543
33.89267	165279
33.89893	171227
33.90518	168062
33.91143	164287
33.91770	165409
33.92395	171625
33.93020	171778
33.93647	171114
33.94272	165751
33.94897	165951
33.95523	175382
33.96148	162504
33.96773	168543
33.97400	167680
33.98025	166039
33.98650	170395
33.99277	172139
33.99902	170699
34.00527	167083
34.01153	164994
34.01778	165518
34.02403	162508
34.03030	171951
34.03655	167150
34.04280	170554
34.04905	164000
34.05532	165513
34.06157	161633
34.06782	173147
34.07408	164106
34.08033	168024
34.08658	163609
34.09285	172101
34.09910	161980
34.10535	160236
34.11162	162747
34.11787	168536
34.12412	166764
34.13038	161010
34.13663	161679
34.14288	170457
34.14915	169671
34.15540	168971
34.16165	169048
34.16792	165213
34.17417	168137
34.18042	162312
34.18668	159142
34.19293	161199
34.19918	170337
34.20545	171533
34.21170	166755
34.21795	165542
34.22422	165858
34.23047	167196
34.23672	166672
34.24298	163490
34.24923	164385
34.25548	163006
34.26173	162720
34.26800	167683
34.27425	164333
34.28050	163100
34.28677	165379
34.29302	167297
34.29927	162154
34.30553	159603
34.31178	166119
34.31803	163848
34.32430	163447
34.33055	167138
34.33680	165556
34.34307	162398
34.34932	164006
34.35557	162584
34.36183	162710
34.36808	168810
34.37433	160885
34.38060	157951
34.38685	159009
34.39310	163894
34.39937	162490
34.40562	161473
34.41187	166368
34.41813	166875
34.42438	158461
34.43063	159223
34.43690	160039
34.44315	162486
34.44940	162604
34.45567	164211
34.46192	166640
34.46817	166570
34.47442	167484
34.48068	159628
34.48693	160537
34.49318	161661
34.49945	161071
34.50570	164660
34.51195	159152
34.51822	160572
34.52447	162726
34.53072	161418
34.53698	159198
34.54323	163164
34.54948	161937
34.55575	160554
34.56200	164125
34.56825	159547
34.57452	163227
34.58077	162209
34.58702	159595
34.59328	167394
34.59953	161117
34.60578	155478
34.61205	159223
34.61830	159580
34.62455	162339
34.63082	158330
34.63707	158016
34.64332	162161
34.64958	156031
34.65583	168314
34.66208	163517
34.66835	164352
34.67460	162212
34.68085	158949
34.68712	166289
34.69337	161761
34.69962	157552
34.70587	156766
34.71213	164869
34.71838	164977
34.72463	161643
34.73090	163534
34.73715	156110
34.74340	159407
34.74967	165095
34.75592	157625
34.76217	154773
34.76843	161269
34.77468	156650
34.78093	155725
34.78720	156490
34.79345	166838
34.79970	158091
34.80597	155159
34.81222	164434
34.81847	158935
34.82473	162216
34.83098	162526
34.83723	159414
34.84350	163300
34.84975	160831
34.85600	156931
34.86227	161673
34.86852	158962
34.87477	156501
34.88103	155804
34.88728	163542
34.89353	160683
34.89980	158534
34.90605	157713
34.91230	157208
34.91855	159161
34.92482	161333
34.93107	157244
34.93732	154979
34.94358	160914
34.94983	155531
34.95608	155733
34.96235	156286
34.96860	155161
34.97485	153115
34.98112	158640
34.98737	158167
34.99362	156428
34.99988	159192
35.00613	156140
35.01238	155237
35.01865	159688
35.02490	154350
35.03115	156515
35.03742	160856
35.04367	161375
35.04992	156398
35.05618	159780
35.06243	155068
35.06868	153447
35.07495	161707
35.08120	161643
35.08745	159088
35.09372	156734
35.09997	155275
35.10622	151021
35.11248	161302
35.11873	154576
35.12498	158738
35.13125	155484
35.13750	155008
35.14375	152997
35.15000	151753
35.15627	159341
35.16252	161840
35.16877	159091
35.17503	154556
35.18128	160290
35.18753	154384
35.19380	153651
35.20005	158302
35.20630	159866
35.21257	154840
35.21882	153207
35.22507	158460
35.23133	158591
35.23758	156428
35.24383	155978
35.25010	155433
35.25635	152340
35.26260	157459
35.26887	156145
35.27512	148614
35.28137	157376
35.28763	154400
35.29388	155689
35.30013	153737
35.30640	154812
35.31265	154252
35.31890	155379
35.32517	149941
35.33142	158811
35.33767	158464
35.34393	156282
35.35018	154213
35.35643	153076
35.36268	154170
35.36895	155574
35.37520	155941
35.38145	151130
35.38772	152977
35.39397	154957
35.40022	153033
35.40648	156137
35.41273	155864
35.41898	156825
35.42525	159410
35.43150	153036
35.43775	159320
35.44402	157876
35.45027	151109
35.45652	159246
35.46278	152054
35.46903	157386
35.47528	158485
35.48155	154412
35.48780	156348
35.49405	153797
35.50032	150478
35.50657	151212
35.51282	150814
35.51908	157894
35.52533	151814
35.53158	151724
35.53785	153510
35.54410	152300
35.55035	159802
35.55662	154750
35.56287	153591
35.56912	161008
35.57538	155847
35.58163	158415
35.58788	153300
35.59413	154259
35.60040	154329
35.60665	157292
35.61290	155517
35.61917	152587
35.62542	152089
35.63167	151967
35.63793	150611
35.64418	156624
35.65043	157327
35.65670	152049
35.66295	150191
35.66920	151323
35.67547	152026
35.68172	156271
35.68797	158280
35.69423	154021
35.70048	153853
35.70673	154267
35.71300	147121
35.71925	148787
35.72550	154050
35.73177	151208
35.73802	148025
35.74427	153927
35.75053	150446
35.75678	149541
35.76303	148053
35.76930	153103
35.77555	154494
35.78180	152014
35.78807	151618
35.79432	148937
35.80057	146633
35.80682	150008
35.81308	149433
35.81933	148186
35.82558	148768
35.83185	144344
35.83810	146674
35.84435	150139
35.85062	146464
35.85687	149222
35.86312	147067
35.86938	146128
35.87563	150911
35.88188	150898
35.88815	149915
35.89440	149449
35.90065	146756
35.90692	148004
35.91317	149832
35.91942	154377
35.92568	146637
35.93193	152136
35.93818	147483
35.94445	150704
35.95070	145911
35.95695	149940
35.96322	142842
35.96947	144976
35.97572	151704
35.98198	148355
35.98823	153872
35.99448	153315
36.00075	148364
36.00700	145018
36.01325	148302
36.01952	145476
36.02577	154823
36.03202	150512
36.03827	147527
36.04453	151622
36.05078	144393
36.05703	146693
36.06330	152324
36.06955	147856
36.07580	145076
36.08207	148158
36.08832	146991
36.09457	150922
36.10083	147179
36.10708	147124
36.11333	146824
36.11960	153730
36.12585	147575
36.13210	144978
36.13837	152397
36.14462	146850
36.15087	150195
36.15713	145245
36.16338	145286
36.16963	145050
36.17590	149190
36.18215	146935
36.18840	150747
36.19467	152522
36.20092	150441
36.20717	153693
36.21343	155670
36.21968	155955
36.22593	158966
36.23220	158013
36.23845	165241
36.24470	174098
36.25095	180360
36.25722	182476
36.26347	189526
36.26972	197917
36.27598	211394
36.28223	226440
36.28848	230143
36.29475	245347
36.30100	250243
36.30725	254161
36.31352	255227
36.31977	258148
36.32602	262133
36.33228	243160
36.33853	241843
36.34478	236658
36.35105	219478
36.35730	207464
36.36355	203421
36.36982	191047
36.37607	182572
36.38232	172442
36.38858	172022
36.39483	168407
36.40108	171913
36.40735	163876
36.41360	157983
36.41985	158822
36.42612	152760
36.43237	156108
36.43862	158210
36.44488	160193
36.45113	152417
36.45738	157022
36.46363	149317
36.46990	151769
36.47615	153403
36.48240	157439
36.48867	154222
36.49492	153292
36.50117	149837
36.50743	153243
36.51368	154811
36.51993	153824
36.52620	153822
36.53245	149252
36.53870	149406
36.54497	151105
36.55122	152748
36.55747	149458
36.56373	147368
36.56998	147425
36.57623	146701
36.58250	153650
36.58875	147922
36.59500	149097
36.60127	154298
36.60752	148316
36.61377	146572
36.62003	152739
36.62628	151081
36.63253	144949
36.63880	148495
36.64505	147233
36.65130	144078
36.65757	151436
36.66382	149179
36.67007	148372
36.67633	153979
36.68258	146519
36.68883	145069
36.69508	149996
36.70135	144712
36.70760	149782
36.71385	142318
36.72012	143627
36.72637	148978
36.73262	146617
36.73888	146604
36.74513	143929
36.75138	143852
36.75765	144000
36.76390	146921
36.77015	148674
36.77642	139337
36.78267	149579
36.78892	145483
36.79518	143311
36.80143	147255
36.80768	143103
36.81395	149578
36.82020	149158
36.82645	151030
36.83272	143981
36.83897	147837
36.84522	143133
36.85148	145704
36.85773	141399
36.86398	144127
36.87025	148536
36.87650	144005
36.88275	146325
36.88902	148635
36.89527	141957
36.90152	145613
36.90777	144767
36.91403	147629
36.92028	147986
36.92653	143629
36.93280	147317
36.93905	140523
36.94530	142348
36.95157	143857
36.95782	142702
36.96407	145430
36.97033	142502
36.97658	141448
36.98283	140332
36.98910	143266
36.99535	140192
37.00160	145869
37.00787	142450
37.01412	150913
37.02037	141110
37.02663	145242
37.03288	141062
37.03913	145578
37.04540	145192
37.05165	146157
37.05790	139372
37.06417	139660
37.07042	144378
37.07667	142018
37.08293	143294
37.08918	143226
37.09543	139976
37.10170	143253
37.10795	146024
37.11420	143618
37.12045	137882
37.12672	146839
37.13297	138629
37.13922	145907
37.14548	144925
37.15173	148071
37.15798	142453
37.16425	146532
37.17050	144496
37.17675	141200
37.18302	142870
37.18927	144513
37.19552	146880
37.20178	142013
37.20803	142744
37.21428	141543
37.22055	138834
37.22680	138838
37.23305	140522
37.23932	143887
37.24557	140127
37.25182	139102
37.25808	139235
37.26433	137812
37.27058	141412
37.27685	141295
37.28310	141718
37.28935	143507
37.29562	144970
37.30187	141867
37.30812	139379
37.31438	138625
37.32063	144913
37.32688	137102
37.33315	141007
37.33940	138434
37.34565	146665
37.35190	143034
37.35817	139669
37.36442	138096
37.37067	140164
37.37693	142295
37.38318	139905
37.38943	140392
37.39570	138725
37.40195	142013
37.40820	142473
37.41447	145743
37.42072	143371
37.42697	139008
37.43323	140628
37.43948	138009
37.44573	138979
37.45200	138034
37.45825	140408
37.46450	137618
37.47077	144105
37.47702	138329
37.48327	140048
37.48953	141750
