D:\MassHunter\GCMS\1\data\metastasis_lineages_3replicates_3runs_10302020\L_plate1_run3_10302020.D Sat Oct 31 10:48:08 2020
Start of data points
5.99338	171726
5.99965	170673
6.00590	168794
6.01215	169246
6.01842	178171
6.02467	187207
6.03092	208124
6.03718	207917
6.04343	216306
6.04968	232861
6.05595	220933
6.06220	192684
6.06845	179896
6.07472	187280
6.08097	242458
6.08722	488214
6.09348	953785
6.09973	1285241
6.10598	1014939
6.11225	579547
6.11850	323789
6.12475	256387
6.13102	275147
6.13727	337792
6.14352	432481
6.14978	650702
6.15603	1016203
6.16228	1222798
6.16855	992287
6.17480	579640
6.18105	346853
6.18730	269712
6.19357	250528
6.19982	225172
6.20607	204196
6.21233	196158
6.21858	185762
6.22483	192734
6.23110	179757
6.23735	172706
6.24360	163297
6.24987	173536
6.25612	170607
6.26237	182249
6.26863	190488
6.27488	185754
6.28113	184647
6.28740	222009
6.29365	332119
6.29990	656753
6.30617	1906005
6.31242	5510992
6.31867	1.118703E+07
6.32493	1.502965E+07
6.33118	1.246468E+07
6.33743	5350018
6.34370	1306744
6.34995	354284
6.35620	235834
6.36247	224232
6.36872	225020
6.37497	229454
6.38123	254878
6.38748	348474
6.39373	527258
6.39998	642530
6.40625	614506
6.41250	578926
6.41875	718999
6.42502	969610
6.43127	996099
6.43752	948755
6.44378	1571968
6.45003	3977257
6.45628	9260094
6.46255	1.76233E+07
6.46880	2.799545E+07
6.47505	3.694594E+07
6.48132	4.345012E+07
6.48757	4.678082E+07
6.49382	4.756348E+07
6.50008	4.731826E+07
6.50633	4.630982E+07
6.51258	4.509E+07
6.51885	4.555848E+07
6.52510	1.156239E+07
6.53135	1187279
6.53762	961269
6.54387	1136352
6.55012	1506534
6.55638	2144579
6.56263	2752859
6.56888	2726450
6.57515	1764918
6.58140	816616
6.58765	437621
6.59392	342093
6.60017	303299
6.60642	287356
6.61268	284189
6.61893	277317
6.62518	280817
6.63143	292046
6.63770	298085
6.64395	307651
6.65020	345434
6.65647	418410
6.66272	480000
6.66897	439939
6.67523	356878
6.68148	305091
6.68773	295867
6.69400	288324
6.70025	291433
6.70650	315761
6.71277	336392
6.71902	345201
6.72527	363389
6.73153	358917
6.73778	378423
6.74403	389152
6.75030	388536
6.75655	380124
6.76280	375306
6.76907	378937
6.77532	391536
6.78157	411736
6.78783	447744
6.79408	497530
6.80033	515252
6.80660	513742
6.81285	475491
6.81910	466391
6.82537	494555
6.83162	542970
6.83787	599941
6.84412	585755
6.85038	540478
6.85663	551324
6.86288	743405
6.86915	1146172
6.87540	1399957
6.88165	1277946
6.88792	879122
6.89417	648842
6.90042	551561
6.90668	504994
6.91293	480349
6.91918	466874
6.92545	446419
6.93170	457552
6.93795	452085
6.94422	432720
6.95047	412354
6.95672	386678
6.96298	379080
6.96923	364269
6.97548	360988
6.98175	356888
6.98800	342986
6.99425	316377
7.00052	319349
7.00677	337099
7.01302	457783
7.01928	1006402
7.02553	2812052
7.03178	6510901
7.03805	1.040255E+07
7.04430	1.103891E+07
7.05055	7463104
7.05680	2933396
7.06307	855581
7.06932	341542
7.07557	242123
7.08183	211569
7.08808	194526
7.09433	190378
7.10060	189963
7.10685	178662
7.11310	178918
7.11937	189713
7.12562	232159
7.13187	382442
7.13813	625490
7.14438	773073
7.15063	627716
7.15690	359310
7.16315	209493
7.16940	158393
7.17567	151433
7.18192	157687
7.18817	191813
7.19443	249458
7.20068	260878
7.20693	229688
7.21320	169631
7.21945	152101
7.22570	156790
7.23197	187441
7.23822	251633
7.24447	406798
7.25073	709312
7.25698	967019
7.26323	917904
7.26950	644388
7.27575	377732
7.28200	227524
7.28825	181685
7.29452	172573
7.30077	170797
7.30702	162407
7.31328	146954
7.31953	134545
7.32578	132076
7.33205	132190
7.33830	136258
7.34455	128127
7.35082	128255
7.35707	123777
7.36332	122164
7.36958	127451
7.37583	150844
7.38208	174066
7.38835	182684
7.39460	173839
7.40085	172576
7.40712	223524
7.41337	320743
7.41962	383100
7.42588	386189
7.43213	337873
7.43838	259036
7.44465	205183
7.45090	182423
7.45715	194059
7.46342	209658
7.46967	219281
7.47592	227557
7.48218	235740
7.48843	306463
7.49468	427926
7.50093	494244
7.50720	424302
7.51345	279096
7.51970	181135
7.52597	142281
7.53222	138440
7.53847	207788
7.54473	641057
7.55098	2488650
7.55723	7516561
7.56350	1.555082E+07
7.56975	2.473782E+07
7.57600	3.043238E+07
7.58227	2.780903E+07
7.58852	1.541189E+07
7.59477	4834862
7.60103	2087395
7.60728	1680974
7.61353	1349352
7.61980	1004574
7.62605	760072
7.63230	548697
7.63857	370041
7.64482	264948
7.65107	222923
7.65733	221301
7.66358	262726
7.66983	374117
7.67610	501276
7.68235	514226
7.68860	401114
7.69487	283361
7.70112	233452
7.70737	299856
7.71363	388766
7.71988	418868
7.72613	371083
7.73238	307262
7.73865	248800
7.74490	210610
7.75115	186011
7.75742	169470
7.76367	155819
7.76992	154527
7.77618	168985
7.78243	172519
7.78868	178189
7.79495	168677
7.80120	170498
7.80745	164729
7.81372	210987
7.81997	300853
7.82622	388199
7.83248	384685
7.83873	323714
7.84498	286811
7.85125	350214
7.85750	482277
7.86375	550850
7.87002	483501
7.87627	352955
7.88252	254908
7.88878	214925
7.89503	215806
7.90128	221057
7.90755	236449
7.91380	234004
7.92005	230595
7.92632	221200
7.93257	221313
7.93882	240589
7.94507	332281
7.95133	424028
7.95758	431921
7.96383	371024
7.97010	323573
7.97635	334351
7.98260	450813
7.98887	686497
7.99512	951395
8.00137	1113787
8.00763	1472393
8.01388	2149076
8.02013	2667275
8.02640	2293197
8.03265	1494589
8.03890	949465
8.04517	853927
8.05142	970717
8.05767	980661
8.06393	762702
8.07018	513392
8.07643	429674
8.08270	542500
8.08895	718596
8.09520	878376
8.10147	1011394
8.10772	1332791
8.11397	1773417
8.12023	1727905
8.12648	1138190
8.13273	556869
8.13900	293978
8.14525	223539
8.15150	191567
8.15777	177387
8.16402	177982
8.17027	164395
8.17652	160499
8.18278	166741
8.18903	155669
8.19528	147031
8.20155	143877
8.20780	142733
8.21405	176421
8.22032	254394
8.22657	426870
8.23282	606639
8.23908	640251
8.24533	475353
8.25158	321488
8.25785	251829
8.26410	219265
8.27035	212643
8.27662	229644
8.28287	262485
8.28912	283664
8.29538	254459
8.30163	196439
8.30788	151275
8.31415	129438
8.32040	125893
8.32665	132870
8.33292	140809
8.33917	147165
8.34542	142736
8.35168	137672
8.35793	146562
8.36418	154463
8.37045	145347
8.37670	141055
8.38295	146855
8.38920	185672
8.39547	324213
8.40172	623882
8.40797	925205
8.41423	865849
8.42048	557936
8.42673	298771
8.43300	197436
8.43925	191706
8.44550	208854
8.45177	213825
8.45802	211467
8.46427	189188
8.47053	171722
8.47678	162316
8.48303	161962
8.48930	161673
8.49555	168869
8.50180	186896
8.50807	198896
8.51432	186226
8.52057	160492
8.52683	147919
8.53308	136271
8.53933	139588
8.54560	145083
8.55185	168053
8.55810	242767
8.56437	412562
8.57062	688802
8.57687	1162572
8.58313	1899069
8.58938	2538117
8.59563	2451898
8.60190	2114624
8.60815	3070059
8.61440	7433121
8.62065	1.423028E+07
8.62692	1.984627E+07
8.63317	1.915773E+07
8.63942	1.147391E+07
8.64568	3662929
8.65193	872230
8.65818	339694
8.66445	277870
8.67070	262989
8.67695	249839
8.68322	229746
8.68947	225007
8.69572	234842
8.70198	242990
8.70823	263453
8.71448	273781
8.72075	262146
8.72700	238435
8.73325	219527
8.73952	222066
8.74577	230534
8.75202	219076
8.75828	187889
8.76453	152947
8.77078	135260
8.77705	141967
8.78330	141309
8.78955	142049
8.79582	127882
8.80207	119881
8.80832	123967
8.81458	118129
8.82083	128872
8.82708	201216
8.83333	511145
8.83960	1395660
8.84585	3162634
8.85210	5469491
8.85837	7162247
8.86462	6794214
8.87087	5420512
8.87713	4717103
8.88338	5239499
8.88963	6301943
8.89590	6896449
8.90215	5656040
8.90840	2468246
8.91467	894382
8.92092	438672
8.92717	272616
8.93343	206593
8.93968	188336
8.94593	192923
8.95220	227710
8.95845	286913
8.96470	336127
8.97097	359455
8.97722	372755
8.98347	408181
8.98973	480111
8.99598	654368
9.00223	890494
9.00850	1024995
9.01475	934459
9.02100	687346
9.02727	528999
9.03352	680851
9.03977	1141246
9.04602	1497539
9.05228	1309909
9.05853	808611
9.06478	422522
9.07105	259623
9.07730	219035
9.08355	206226
9.08982	221719
9.09607	235303
9.10232	240661
9.10858	212692
9.11483	177068
9.12108	160271
9.12735	156257
9.13360	171289
9.13985	191296
9.14612	202714
9.15237	234419
9.15862	289335
9.16488	340872
9.17113	361157
9.17738	370263
9.18365	435358
9.18990	508531
9.19615	511596
9.20242	418131
9.20867	299434
9.21492	219331
9.22118	180869
9.22743	171566
9.23368	190133
9.23995	249755
9.24620	301251
9.25245	313046
9.25872	258122
9.26497	190880
9.27122	147858
9.27747	133407
9.28373	144716
9.28998	187522
9.29623	278683
9.30250	369950
9.30875	428269
9.31500	476837
9.32127	512936
9.32752	507099
9.33377	512502
9.34003	728030
9.34628	1145292
9.35253	1398335
9.35880	1227687
9.36505	782131
9.37130	618321
9.37757	1476049
9.38382	4670271
9.39007	1.091577E+07
9.39633	1.722106E+07
9.40258	1.932568E+07
9.40883	1.503913E+07
9.41510	6870752
9.42135	2006388
9.42760	1072293
9.43387	2573737
9.44012	7727948
9.44637	1.802911E+07
9.45263	3.006154E+07
9.45888	3.615332E+07
9.46513	3.360656E+07
9.47140	2.184568E+07
9.47765	8167181
9.48390	2092210
9.49015	688258
9.49642	372786
9.50267	267204
9.50892	243296
9.51518	242331
9.52143	233098
9.52768	225446
9.53395	217959
9.54020	219736
9.54645	216606
9.55272	216069
9.55897	213751
9.56522	233722
9.57148	250776
9.57773	259039
9.58398	247155
9.59025	224909
9.59650	215684
9.60275	217987
9.60902	242387
9.61527	269589
9.62152	272579
9.62778	242081
9.63403	197120
9.64028	188939
9.64655	190016
9.65280	204134
9.65905	200820
9.66532	189285
9.67157	238413
9.67782	674565
9.68408	2536552
9.69033	7268084
9.69658	1.376333E+07
9.70283	1.80148E+07
9.70910	1.683464E+07
9.71535	9451454
9.72160	3968906
9.72787	3118155
9.73412	4656836
9.74037	5829803
9.74663	4983668
9.75288	2739250
9.75913	1117025
9.76540	454395
9.77165	271169
9.77790	223257
9.78417	194991
9.79042	172719
9.79667	159314
9.80293	152513
9.80918	148864
9.81543	154325
9.82170	154079
9.82795	160040
9.83420	177455
9.84047	216820
9.84672	310405
9.85297	724516
9.85923	2269427
9.86548	6411836
9.87173	1.309575E+07
9.87800	1.83414E+07
9.88425	1.695308E+07
9.89050	1.018571E+07
9.89677	3929145
9.90302	1986999
9.90927	2177423
9.91553	2328152
9.92178	1639520
9.92803	801287
9.93428	361943
9.94055	240943
9.94680	217787
9.95305	256620
9.95932	387745
9.96557	669492
9.97182	1018221
9.97808	1253299
9.98433	1298449
9.99058	1202412
9.99685	1041447
10.00310	792609
10.00935	520704
10.01562	365009
10.02187	298697
10.02812	255345
10.03438	224862
10.04063	212149
10.04688	217660
10.05315	223644
10.05940	213321
10.06565	181161
10.07192	167690
10.07817	166191
10.08442	174481
10.09068	194892
10.09693	219982
10.10318	230427
10.10945	236771
10.11570	229435
10.12195	222431
10.12822	196504
10.13447	170638
10.14072	158046
10.14697	151968
10.15323	148872
10.15948	152358
10.16573	155732
10.17200	161651
10.17825	183348
10.18450	203964
10.19077	218956
10.19702	209955
10.20327	186879
10.20953	176073
10.21578	218169
10.22203	348939
10.22830	580126
10.23455	854078
10.24080	1033000
10.24707	1000966
10.25332	761117
10.25957	509783
10.26583	356340
10.27208	288861
10.27833	247411
10.28460	277608
10.29085	378358
10.29710	452793
10.30337	423331
10.30962	326294
10.31587	244900
10.32213	234942
10.32838	279046
10.33463	384511
10.34090	468715
10.34715	437038
10.35340	319652
10.35965	235696
10.36592	209113
10.37217	198109
10.37842	178553
10.38468	166282
10.39093	160942
10.39718	160736
10.40345	153231
10.40970	141325
10.41595	146910
10.42222	163121
10.42847	171697
10.43472	177578
10.44098	176289
10.44723	178256
10.45348	186926
10.45975	188935
10.46600	191563
10.47225	200375
10.47852	252853
10.48477	353014
10.49102	436985
10.49728	408313
10.50353	298030
10.50978	218392
10.51605	168047
10.52230	164064
10.52855	193832
10.53482	260044
10.54107	319965
10.54732	335813
10.55358	286644
10.55983	238747
10.56608	239399
10.57235	269790
10.57860	316941
10.58485	342747
10.59110	326079
10.59737	356438
10.60362	705238
10.60987	2290370
10.61613	6276999
10.62238	1.220251E+07
10.62863	1.613223E+07
10.63490	1.5172E+07
10.64115	9155887
10.64740	3470042
10.65367	963594
10.65992	340182
10.66617	239912
10.67243	242777
10.67868	254879
10.68493	254754
10.69120	231176
10.69745	194314
10.70370	168252
10.70997	167112
10.71622	177271
10.72247	192364
10.72873	203753
10.73498	205645
10.74123	210237
10.74750	209990
10.75375	201785
10.76000	195725
10.76627	206761
10.77252	213136
10.77877	215841
10.78503	215525
10.79128	207557
10.79753	201689
10.80378	221738
10.81005	312825
10.81630	481060
10.82255	606936
10.82882	580797
10.83507	418398
10.84132	263870
10.84758	211238
10.85383	208328
10.86008	221923
10.86635	227286
10.87260	229123
10.87885	219510
10.88512	214635
10.89137	214325
10.89762	224057
10.90388	238926
10.91013	247709
10.91638	229601
10.92265	217306
10.92890	218590
10.93515	222199
10.94142	200792
10.94767	180602
10.95392	174080
10.96018	251254
10.96643	658479
10.97268	2208543
10.97895	6268917
10.98520	1.340174E+07
10.99145	2.167714E+07
10.99772	2.642193E+07
11.00397	2.302159E+07
11.01022	1.212903E+07
11.01648	3638460
11.02273	850040
11.02898	328930
11.03523	286319
11.04150	319607
11.04775	326770
11.05400	364755
11.06027	404648
11.06652	400542
11.07277	344136
11.07903	260049
11.08528	201406
11.09153	186573
11.09780	208097
11.10405	228575
11.11030	231829
11.11657	219225
11.12282	225938
11.12907	236337
11.13533	259727
11.14158	274294
11.14783	292496
11.15410	344882
11.16035	474773
11.16660	665820
11.17287	758808
11.17912	658198
11.18537	451005
11.19163	280127
11.19788	220920
11.20413	227500
11.21040	274992
11.21665	333037
11.22290	371194
11.22917	350663
11.23542	298175
11.24167	263127
11.24792	267774
11.25418	294829
11.26043	304718
11.26668	287190
11.27295	282658
11.27920	307716
11.28545	328668
11.29172	313135
11.29797	264081
11.30422	230156
11.31048	237546
11.31673	306879
11.32298	482921
11.32925	703983
11.33550	822439
11.34175	690592
11.34802	443044
11.35427	259088
11.36052	191899
11.36678	176469
11.37303	187427
11.37928	181530
11.38555	171023
11.39180	171646
11.39805	174516
11.40432	184052
11.41057	196293
11.41682	202386
11.42308	205065
11.42933	219102
11.43558	298776
11.44185	523631
11.44810	905333
11.45435	1203549
11.46062	1201925
11.46687	851869
11.47312	483130
11.47937	324935
11.48563	277295
11.49188	263024
11.49813	232153
11.50440	211478
11.51065	194235
11.51690	188978
11.52317	180450
11.52942	179152
11.53567	182409
11.54193	189711
11.54818	199280
11.55443	185171
11.56070	176835
11.56695	163600
11.57320	167227
11.57947	166004
11.58572	170313
11.59197	174691
11.59823	177936
11.60448	183082
11.61073	176285
11.61700	178858
11.62325	176783
11.62950	178682
11.63577	183699
11.64202	181825
11.64827	204069
11.65453	219517
11.66078	237050
11.66703	233354
11.67330	216167
11.67955	192910
11.68580	200065
11.69205	201336
11.69832	218804
11.70457	255929
11.71082	316898
11.71708	396671
11.72333	447713
11.72958	408878
11.73585	334222
11.74210	277412
11.74835	232097
11.75462	207943
11.76087	201303
11.76712	214364
11.77338	239870
11.77963	275131
11.78588	281623
11.79215	291631
11.79840	304131
11.80465	296780
11.81092	275331
11.81717	260157
11.82342	270917
11.82968	354002
11.83593	549891
11.84218	714703
11.84845	753136
11.85470	608053
11.86095	414077
11.86722	300294
11.87347	259477
11.87972	278060
11.88598	354334
11.89223	455198
11.89848	510297
11.90475	492697
11.91100	419318
11.91725	329997
11.92350	279553
11.92977	257417
11.93602	292351
11.94227	474833
11.94853	1024970
11.95478	2471409
11.96103	4773862
11.96730	7119929
11.97355	7254622
11.97980	5111966
11.98607	2228175
11.99232	921703
11.99857	639825
12.00483	689150
12.01108	701799
12.01733	614448
12.02360	509874
12.02985	476520
12.03610	577801
12.04237	842584
12.04862	1227262
12.05487	1558668
12.06113	1626143
12.06738	1357609
12.07363	946521
12.07990	658760
12.08615	543918
12.09240	524446
12.09867	525247
12.10492	492990
12.11117	419236
12.11743	337270
12.12368	282267
12.12993	270484
12.13618	264040
12.14245	257864
12.14870	244399
12.15495	238483
12.16122	231877
12.16747	228990
12.17372	234998
12.17998	241516
12.18623	264692
12.19248	310182
12.19875	379037
12.20500	469487
12.21125	573342
12.21752	651483
12.22377	678235
12.23002	619354
12.23628	538552
12.24253	505748
12.24878	618715
12.25505	932392
12.26130	1437625
12.26755	2214136
12.27382	2880558
12.28007	2875839
12.28632	2255540
12.29258	1304963
12.29883	649338
12.30508	358150
12.31135	252453
12.31760	227984
12.32385	212163
12.33012	220127
12.33637	248992
12.34262	303335
12.34887	369178
12.35513	426710
12.36138	440093
12.36763	405954
12.37390	370416
12.38015	365651
12.38640	431462
12.39267	509433
12.39892	480354
12.40517	397324
12.41143	322002
12.41768	279985
12.42393	279847
12.43020	312269
12.43645	360853
12.44270	384357
12.44897	364865
12.45522	326110
12.46147	324021
12.46773	346576
12.47398	423998
12.48023	625877
12.48650	946899
12.49275	1342514
12.49900	1474247
12.50527	1272671
12.51152	858281
12.51777	488010
12.52403	303258
12.53028	257893
12.53653	262573
12.54280	300308
12.54905	338521
12.55530	327525
12.56157	307581
12.56782	352789
12.57407	562850
12.58032	1080869
12.58658	1978182
12.59283	2990536
12.59908	3225095
12.60535	2780279
12.61160	2414535
12.61785	2814274
12.62412	3989746
12.63037	5273522
12.63662	7125432
12.64288	9999805
12.64913	1.401169E+07
12.65538	1.894577E+07
12.66165	2.576919E+07
12.66790	3.124093E+07
12.67415	3.502915E+07
12.68042	3.532967E+07
12.68667	3.334067E+07
12.69292	2.159416E+07
12.69918	6241655
12.70543	1448893
12.71168	1033893
12.71795	1409027
12.72420	1707407
12.73045	1621976
12.73672	1406187
12.74297	1258757
12.74922	1123611
12.75548	923039
12.76173	731361
12.76798	606333
12.77425	526286
12.78050	496894
12.78675	485179
12.79300	493860
12.79927	491680
12.80552	450291
12.81177	407749
12.81803	377938
12.82428	396513
12.83053	428452
12.83680	448379
12.84305	438968
12.84930	417413
12.85557	407136
12.86182	403489
12.86807	390728
12.87433	393068
12.88058	430809
12.88683	587043
12.89310	900553
12.89935	1205592
12.90560	1298133
12.91187	1204018
12.91812	1001844
12.92437	756699
12.93063	558982
12.93688	402996
12.94313	332327
12.94940	303933
12.95565	293368
12.96190	292593
12.96817	277473
12.97442	274365
12.98067	289263
12.98693	312365
12.99318	341329
12.99943	375068
13.00568	390337
13.01195	412829
13.01820	439697
13.02445	526122
13.03072	730332
13.03697	992917
13.04322	1050409
13.04948	829989
13.05573	566980
13.06198	478476
13.06825	689012
13.07450	1411472
13.08075	2857916
13.08702	4406190
13.09327	4760179
13.09952	3648643
13.10578	2154788
13.11203	1175393
13.11828	716277
13.12455	526712
13.13080	441415
13.13705	408539
13.14332	398171
13.14957	386330
13.15582	373832
13.16208	361710
13.16833	348576
13.17458	328661
13.18085	312599
13.18710	290817
13.19335	280220
13.19962	271763
13.20587	273330
13.21212	270002
13.21838	283753
13.22463	310022
13.23088	346430
13.23713	384580
13.24340	409927
13.24965	407728
13.25590	403198
13.26217	427873
13.26842	460393
13.27467	447505
13.28093	427271
13.28718	459992
13.29343	588724
13.29970	935660
13.30595	1456827
13.31220	2028165
13.31847	2121940
13.32472	1565103
13.33097	870205
13.33723	484918
13.34348	382076
13.34973	379441
13.35600	386462
13.36225	388018
13.36850	365136
13.37477	345036
13.38102	325553
13.38727	315000
13.39353	304332
13.39978	293335
13.40603	297498
13.41230	297726
13.41855	311239
13.42480	348128
13.43107	394413
13.43732	445646
13.44357	477508
13.44982	453023
13.45608	413681
13.46233	378947
13.46858	335105
13.47485	338263
13.48110	332982
13.48735	339266
13.49362	343148
13.49987	347738
13.50612	347596
13.51238	353764
13.51863	374730
13.52488	392917
13.53115	403177
13.53740	436615
13.54365	538658
13.54992	755166
13.55617	1021414
13.56242	1179945
13.56868	1057563
13.57493	837534
13.58118	750717
13.58745	841035
13.59370	1152090
13.59995	1682350
13.60622	2086035
13.61247	2135913
13.61872	1799973
13.62498	1395146
13.63123	1018283
13.63748	747919
13.64375	580634
13.65000	493842
13.65625	468391
13.66252	467238
13.66877	452279
13.67502	441857
13.68127	466254
13.68753	500243
13.69378	552735
13.70003	568222
13.70630	526630
13.71255	484026
13.71880	438263
13.72507	428467
13.73132	431969
13.73757	444918
13.74383	454363
13.75008	521465
13.75633	727297
13.76260	1097150
13.76885	1488276
13.77510	1502013
13.78137	1183244
13.78762	805001
13.79387	675439
13.80013	952046
13.80638	1946711
13.81263	4095858
13.81890	7405473
13.82515	1.258207E+07
13.83140	1.960628E+07
13.83767	2.707585E+07
13.84392	3.328227E+07
13.85017	3.502432E+07
13.85643	2.457994E+07
13.86268	8565279
13.86893	1617355
13.87520	500418
13.88145	454252
13.88770	712519
13.89395	1433937
13.90022	3160272
13.90647	6099374
13.91272	1.009784E+07
13.91898	1.344008E+07
13.92523	1.306202E+07
13.93148	8119780
13.93775	3026187
13.94400	888818
13.95025	348228
13.95652	262658
13.96277	253673
13.96902	253001
13.97528	253993
13.98153	255724
13.98778	265981
13.99405	282278
14.00030	292184
14.00655	316796
14.01282	370586
14.01907	392937
14.02532	350426
14.03158	290332
14.03783	237934
14.04408	213911
14.05035	213375
14.05660	228192
14.06285	262555
14.06912	298961
14.07537	325620
14.08162	322054
14.08788	273650
14.09413	237999
14.10038	216472
14.10665	200578
14.11290	190671
14.11915	195300
14.12540	208985
14.13167	219135
14.13792	207510
14.14417	208224
14.15043	204538
14.15668	204356
14.16293	212489
14.16920	209112
14.17545	199830
14.18170	183428
14.18797	183330
14.19422	191930
14.20047	200387
14.20673	213203
14.21298	250308
14.21923	317532
14.22550	384397
14.23175	435379
14.23800	438046
14.24427	355928
14.25052	285715
14.25677	267027
14.26303	327065
14.26928	530117
14.27553	840560
14.28180	998531
14.28805	893603
14.29430	613436
14.30057	424316
14.30682	348212
14.31307	346899
14.31933	433876
14.32558	588139
14.33183	694485
14.33808	646296
14.34435	503424
14.35060	362740
14.35685	283433
14.36312	254707
14.36937	243611
14.37562	247862
14.38188	254828
14.38813	288434
14.39438	356082
14.40065	562709
14.40690	1127146
14.41315	2562324
14.41942	4964137
14.42567	7431845
14.43192	8085452
14.43818	5740561
14.44443	3267536
14.45068	1868298
14.45695	1265722
14.46320	1065727
14.46945	941027
14.47572	849241
14.48197	778001
14.48822	685713
14.49448	557755
14.50073	424782
14.50698	354663
14.51325	327657
14.51950	338353
14.52575	368817
14.53202	393767
14.53827	383179
14.54452	332867
14.55077	304009
14.55703	290253
14.56328	282609
14.56953	295509
14.57580	312106
14.58205	302259
14.58830	277289
14.59457	251520
14.60082	241154
14.60707	238614
14.61333	245084
14.61958	246521
14.62583	258708
14.63210	293323
14.63835	399428
14.64460	557547
14.65087	710756
14.65712	715148
14.66337	594085
14.66963	486766
14.67588	403902
14.68213	391505
14.68840	459311
14.69465	626802
14.70090	833099
14.70717	920378
14.71342	846339
14.71967	742575
14.72593	905469
14.73218	1384728
14.73843	2115458
14.74470	2658831
14.75095	2927779
14.75720	3063763
14.76347	3179758
14.76972	2764113
14.77597	1858024
14.78222	914464
14.78848	459297
14.79473	393253
14.80098	562971
14.80725	898847
14.81350	1217844
14.81975	1242898
14.82602	889123
14.83227	512294
14.83852	309648
14.84478	250477
14.85103	255704
14.85728	309570
14.86355	395334
14.86980	464124
14.87605	452782
14.88232	388043
14.88857	326427
14.89482	291493
14.90108	324154
14.90733	432818
14.91358	727111
14.91985	1060905
14.92610	1233412
14.93235	1159390
14.93862	897740
14.94487	652679
14.95112	504110
14.95738	526057
14.96363	832998
14.96988	1601556
14.97615	2868692
14.98240	3963875
14.98865	3768106
14.99490	2480339
15.00117	1222704
15.00742	600571
15.01367	382934
15.01993	322209
15.02618	288009
15.03243	286407
15.03870	302428
15.04495	330521
15.05120	353776
15.05747	374360
15.06372	376537
15.06997	362491
15.07623	343294
15.08248	334399
15.08873	356075
15.09500	408809
15.10125	446297
15.10750	490718
15.11377	523857
15.12002	621571
15.12627	764539
15.13253	928710
15.13878	1045924
15.14503	1176842
15.15130	1231472
15.15755	1492737
15.16380	2224077
15.17007	3866243
15.17632	5332497
15.18257	5521764
15.18883	3778539
15.19508	1985066
15.20133	958458
15.20760	568660
15.21385	408939
15.22010	322676
15.22635	261861
15.23262	246858
15.23887	249480
15.24512	267169
15.25138	281564
15.25763	302798
15.26388	309091
15.27015	287010
15.27640	266662
15.28265	254990
15.28892	244442
15.29517	245675
15.30142	246759
15.30768	263234
15.31393	304645
15.32018	372427
15.32645	443868
15.33270	445843
15.33895	386331
15.34522	315512
15.35147	281922
15.35772	303636
15.36398	329320
15.37023	343424
15.37648	315034
15.38275	281616
15.38900	252404
15.39525	233906
15.40152	218039
15.40777	214765
15.41402	220143
15.42028	247549
15.42653	328408
15.43278	444720
15.43903	593294
15.44530	799711
15.45155	1084479
15.45780	1255616
15.46407	1126838
15.47032	810877
15.47657	527474
15.48283	361738
15.48908	282535
15.49533	265098
15.50160	284418
15.50785	365142
15.51410	560883
15.52037	1217234
15.52662	2768957
15.53287	5115840
15.53913	7667413
15.54538	1.00855E+07
15.55163	1.404012E+07
15.55790	1.820983E+07
15.56415	1.999189E+07
15.57040	1.522048E+07
15.57667	5956730
15.58292	1596603
15.58917	646493
15.59543	484132
15.60168	466226
15.60793	489060
15.61420	511066
15.62045	492393
15.62670	473429
15.63297	447432
15.63922	438248
15.64547	400127
15.65172	352406
15.65798	314064
15.66423	302947
15.67048	300920
15.67675	305995
15.68300	329757
15.68925	336172
15.69552	327148
15.70177	332399
15.70802	317954
15.71428	294656
15.72053	269313
15.72678	263381
15.73305	277749
15.73930	290781
15.74555	311636
15.75182	315411
15.75807	309354
15.76432	281567
15.77058	247159
15.77683	214509
15.78308	204397
15.78935	213679
15.79560	221864
15.80185	229480
15.80812	229981
15.81437	228724
15.82062	236771
15.82688	280286
15.83313	365379
15.83938	582479
15.84565	868821
15.85190	1033632
15.85815	913819
15.86442	646837
15.87067	406574
15.87692	317454
15.88317	289777
15.88943	289068
15.89568	276121
15.90193	262004
15.90820	241091
15.91445	233978
15.92070	228867
15.92697	229734
15.93322	224920
15.93947	223677
15.94573	221462
15.95198	220805
15.95823	247142
15.96450	274310
15.97075	304264
15.97700	292031
15.98327	247340
15.98952	208820
15.99577	195090
16.00203	203757
16.00828	254127
16.01453	346789
16.02080	487653
16.02705	627600
16.03330	762563
16.03957	910983
16.04582	1158960
16.05207	1440179
16.05833	1522377
16.06458	1197307
16.07083	916723
16.07710	920026
16.08335	1189184
16.08960	1590373
16.09585	1727206
16.10212	1487437
16.10837	1337458
16.11462	1719613
16.12088	2805657
16.12713	4204130
16.13338	4455245
16.13965	3460156
16.14590	1819584
16.15215	845952
16.15842	470440
16.16467	377578
16.17092	377082
16.17718	355915
16.18343	349265
16.18968	371518
16.19595	437226
16.20220	463967
16.20845	418193
16.21472	333981
16.22097	360533
16.22722	588230
16.23348	1006060
16.23973	1381135
16.24598	1392423
16.25225	993669
16.25850	613333
16.26475	401315
16.27102	316582
16.27727	268689
16.28352	264846
16.28978	279068
16.29603	344303
16.30228	486197
16.30853	674254
16.31480	785701
16.32105	667530
16.32730	475503
16.33357	355985
16.33982	302053
16.34607	272065
16.35233	272870
16.35858	270565
16.36483	267101
16.37110	262282
16.37735	259590
16.38360	250666
16.38987	248448
16.39612	240746
16.40237	240672
16.40863	244695
16.41488	244301
16.42113	263166
16.42740	321372
16.43365	521308
16.43990	1004614
16.44617	1587539
16.45242	1957819
16.45867	1848838
16.46493	1384115
16.47118	972504
16.47743	771898
16.48370	627198
16.48995	512358
16.49620	461450
16.50247	456558
16.50872	511716
16.51497	652934
16.52123	835787
16.52748	1005286
16.53373	1004706
16.53998	879579
16.54625	760480
16.55250	643226
16.55875	587880
16.56502	526555
16.57127	491936
16.57752	480550
16.58378	482289
16.59003	473425
16.59628	481947
16.60255	470503
16.60880	482953
16.61505	492070
16.62132	507096
16.62757	519281
16.63382	546686
16.64008	572785
16.64633	636532
16.65258	682112
16.65885	669184
16.66510	612309
16.67135	564134
16.67762	535573
16.68387	563671
16.69012	578302
16.69638	563775
16.70263	506527
16.70888	458813
16.71515	431337
16.72140	428858
16.72765	430002
16.73392	446337
16.74017	479559
16.74642	528207
16.75267	660089
16.75893	966464
16.76518	1938176
16.77143	3979864
16.77770	7060876
16.78395	9847570
16.79020	1.090266E+07
16.79647	9580090
16.80272	8171456
16.80897	7651596
16.81523	8084330
16.82148	8864109
16.82773	1.023009E+07
16.83400	1.263047E+07
16.84025	1.506526E+07
16.84650	1.680475E+07
16.85277	1.69831E+07
16.85902	1.414555E+07
16.86527	9930335
16.87153	7603669
16.87778	7185733
16.88403	8037642
16.89030	9406350
16.89655	1.058581E+07
16.90280	1.03844E+07
16.90907	9159587
16.91532	6978463
16.92157	5485949
16.92783	4991042
16.93408	5154192
16.94033	5547421
16.94660	5738971
16.95285	6197145
16.95910	6619050
16.96537	6418915
16.97162	5594785
16.97787	4086253
16.98412	2971457
16.99038	2374191
16.99663	2113651
17.00288	2244828
17.00915	2876427
17.01540	4925720
17.02165	8768218
17.02792	1.464258E+07
17.03417	2.248946E+07
17.04042	3.01409E+07
17.04668	3.826661E+07
17.05293	4.509466E+07
17.05918	5.146658E+07
17.06545	5.291352E+07
17.07170	5.087048E+07
17.07795	4.839612E+07
17.08422	4.490572E+07
17.09047	4.062376E+07
17.09672	3.83456E+07
17.10298	3.739146E+07
17.10923	3.594886E+07
17.11548	3.671945E+07
17.12175	4.7826E+07
17.12800	1.573313E+07
17.13425	1.30876E+07
17.14052	1.232315E+07
17.14677	1.089657E+07
17.15302	1.112932E+07
17.15928	1.74879E+07
17.16553	2.973816E+07
17.17178	4.181969E+07
17.17805	4.891072E+07
17.18430	5.083526E+07
17.19055	4.650134E+07
17.19680	2.519977E+07
17.20307	7482286
17.20932	4440478
17.21557	4858299
17.22183	5661306
17.22808	6840359
17.23433	9521641
17.24060	1.576091E+07
17.24685	2.709667E+07
17.25310	4.077036E+07
17.25937	5.045134E+07
17.26562	5.402747E+07
17.27187	5.365817E+07
17.27813	4.778476E+07
17.28438	2.352919E+07
17.29063	1.154681E+07
17.29690	1.387949E+07
17.30315	1.90909E+07
17.30940	2.182068E+07
17.31567	1.679776E+07
17.32192	9630730
17.32817	4250909
17.33443	2308872
17.34068	1823003
17.34693	1671676
17.35320	1590524
17.35945	1507379
17.36570	1427401
17.37197	1369190
17.37822	1329773
17.38447	1315496
17.39073	1374495
17.39698	1452995
17.40323	1591697
17.40950	1820245
17.41575	2112827
17.42200	2329933
17.42825	2280223
17.43452	2049179
17.44077	2273625
17.44702	3191909
17.45328	4703628
17.45953	6182148
17.46578	5991366
17.47205	4701259
17.47830	2944671
17.48455	1833599
17.49082	1446632
17.49707	1306792
17.50332	1331408
17.50958	1377120
17.51583	1479491
17.52208	1658670
17.52835	1525601
17.53460	1288828
17.54085	1079078
17.54712	996281
17.55337	1078658
17.55962	1414213
17.56588	2514936
17.57213	5044737
17.57838	9809918
17.58465	1.381951E+07
17.59090	1.395155E+07
17.59715	9543165
17.60342	4856064
17.60967	2101376
17.61592	1417990
17.62218	1409098
17.62843	1448416
17.63468	1332152
17.64093	1091849
17.64720	921662
17.65345	840840
17.65970	829341
17.66597	817524
17.67222	772389
17.67847	750559
17.68473	740314
17.69098	785011
17.69723	831453
17.70350	820345
17.70975	781979
17.71600	747538
17.72227	718578
17.72852	668739
17.73477	675875
17.74103	692353
17.74728	741705
17.75353	792898
17.75980	806647
17.76605	858025
17.77230	955835
17.77857	1238928
17.78482	1609907
17.79107	2257432
17.79733	3417836
17.80358	5807947
17.80983	8607497
17.81610	1.167527E+07
17.82235	1.035854E+07
17.82860	7991255
17.83487	4476782
17.84112	2331680
17.84737	1459150
17.85362	1162882
17.85988	1653247
17.86613	3437407
17.87238	7558828
17.87865	1.208936E+07
17.88490	1.368638E+07
17.89115	1.121757E+07
17.89742	6130436
17.90367	2492024
17.90992	1162459
17.91618	789138
17.92243	706348
17.92868	669067
17.93495	623718
17.94120	610707
17.94745	580585
17.95372	588249
17.95997	594420
17.96622	606198
17.97248	603009
17.97873	613244
17.98498	624422
17.99125	681203
17.99750	772743
18.00375	927405
18.01002	1087424
18.01627	1144984
18.02252	995722
18.02878	784636
18.03503	637985
18.04128	567805
18.04755	535401
18.05380	511416
18.06005	470972
18.06632	446749
18.07257	437501
18.07882	438541
18.08507	466234
18.09133	516705
18.09758	589402
18.10383	621293
18.11010	591654
18.11635	564604
18.12260	624356
18.12887	960500
18.13512	1827155
18.14137	3179856
18.14763	4029198
18.15388	3732310
18.16013	2394836
18.16640	1233432
18.17265	694439
18.17890	519231
18.18517	462592
18.19142	427208
18.19767	410754
18.20393	422395
18.21018	465097
18.21643	532986
18.22270	563520
18.22895	531353
18.23520	472938
18.24147	430042
18.24772	405480
18.25397	400670
18.26023	419143
18.26648	456055
18.27273	506471
18.27900	596836
18.28525	766110
18.29150	1124595
18.29775	1701091
18.30402	2103942
18.31027	2046442
18.31652	1565476
18.32278	1017880
18.32903	641324
18.33528	464273
18.34155	381796
18.34780	359098
18.35405	360737
18.36032	376578
18.36657	375529
18.37282	375776
18.37908	404675
18.38533	453090
18.39158	522957
18.39785	553219
18.40410	534713
18.41035	544215
18.41662	528185
18.42287	496938
18.42912	438741
18.43538	404672
18.44163	371528
18.44788	355923
18.45415	337967
18.46040	329780
18.46665	341818
18.47292	338188
18.47917	330109
18.48542	314998
18.49168	305792
18.49793	309672
18.50418	316517
18.51043	327380
18.51670	330151
18.52295	320332
18.52920	316841
18.53547	311722
18.54172	316212
18.54797	328976
18.55423	337847
18.56048	343756
18.56673	341494
18.57300	340187
18.57925	316865
18.58550	310699
18.59177	307838
18.59802	326583
18.60427	347284
18.61053	402996
18.61678	436800
18.62303	442187
18.62930	397189
18.63555	356601
18.64180	336898
18.64807	338823
18.65432	337231
18.66057	351183
18.66683	386117
18.67308	408722
18.67933	393923
18.68560	352147
18.69185	326427
18.69810	330557
18.70437	358585
18.71062	411268
18.71687	449724
18.72313	438696
18.72938	395749
18.73563	338653
18.74188	314317
18.74815	306869
18.75440	303944
18.76065	294150
18.76692	283981
18.77317	283161
18.77942	277857
18.78568	276346
18.79193	267113
18.79818	271230
18.80445	286091
18.81070	302146
18.81695	303555
18.82322	310517
18.82947	299483
18.83572	291014
18.84198	283971
18.84823	275032
18.85448	270795
18.86075	297894
18.86700	404419
18.87325	737209
18.87952	1712438
18.88577	4024586
18.89202	7956630
18.89828	1.215838E+07
18.90453	1.40187E+07
18.91078	1.066031E+07
18.91705	5450722
18.92330	2109541
18.92955	801673
18.93582	486263
18.94207	442361
18.94832	418562
18.95457	364337
18.96083	310003
18.96708	273343
18.97333	251315
18.97960	242008
18.98585	246441
18.99210	250623
18.99837	271919
19.00462	301240
19.01087	317134
19.01713	316141
19.02338	297682
19.02963	289527
19.03590	295751
19.04215	312780
19.04840	335810
19.05467	332737
19.06092	327857
19.06717	291277
19.07343	291773
19.07968	319233
19.08593	351108
19.09220	367863
19.09845	369598
19.10470	366226
19.11097	371019
19.11722	375779
19.12347	383378
19.12973	395928
19.13598	379641
19.14223	367554
19.14850	340594
19.15475	302183
19.16100	281563
19.16725	265640
19.17352	251007
19.17977	251980
19.18602	250780
19.19228	253752
19.19853	266202
19.20478	266814
19.21105	263451
19.21730	261491
19.22355	253427
19.22982	247115
19.23607	240112
19.24232	228050
19.24858	233595
19.25483	223797
19.26108	215979
19.26735	220325
19.27360	219511
19.27985	234449
19.28612	242444
19.29237	252712
19.29862	253671
19.30488	249341
19.31113	235211
19.31738	221339
19.32365	221128
19.32990	217483
19.33615	226627
19.34242	255843
19.34867	283376
19.35492	305741
19.36118	305836
19.36743	284677
19.37368	307437
19.37995	264594
19.38620	273393
19.39245	293658
19.39870	324514
19.40497	354865
19.41122	348977
19.41747	335207
19.42373	311680
19.42998	294148
19.43623	280744
19.44250	286375
19.44875	298428
19.45500	294859
19.46127	274129
19.46752	263030
19.47377	263964
19.48003	258226
19.48628	261464
19.49253	267986
19.49880	275661
19.50505	285867
19.51130	299006
19.51757	311377
19.52382	306604
19.53007	301211
19.53633	308513
19.54258	353477
19.54883	422744
19.55510	471479
19.56135	467866
19.56760	421554
19.57387	343001
19.58012	281612
19.58637	250634
19.59263	238697
19.59888	233159
19.60513	235620
19.61138	224853
19.61765	227817
19.62390	245206
19.63015	277257
19.63642	324524
19.64267	353486
19.64892	337301
19.65518	305750
19.66143	297621
19.66768	314553
19.67395	357613
19.68020	419785
19.68645	445485
19.69272	402283
19.69897	422593
19.70522	387223
19.71148	382273
19.71773	357291
19.72398	388302
19.73025	341484
19.73650	345704
19.74275	352748
19.74902	339650
19.75527	331504
19.76152	338267
19.76778	360506
19.77403	389666
19.78028	400241
19.78655	389177
19.79280	362499
19.79905	365697
19.80532	378149
19.81157	356348
19.81782	317003
19.82408	300094
19.83033	286492
19.83658	271272
19.84283	273280
19.84910	290231
19.85535	326891
19.86160	386298
19.86787	438261
19.87412	460786
19.88037	425623
19.88663	365662
19.89288	336159
19.89913	380131
19.90540	658121
19.91165	1581767
19.91790	3487033
19.92417	5653444
19.93042	6802985
19.93667	5471349
19.94293	3159106
19.94918	1384921
19.95543	630888
19.96170	462016
19.96795	523602
19.97420	637390
19.98047	791460
19.98672	837750
19.99297	743242
19.99923	605030
20.00548	489449
20.01173	387763
20.01800	345591
20.02425	324025
20.03050	316797
20.03677	323859
20.04302	365827
20.04927	402886
20.05552	402214
20.06178	396142
20.06803	346212
20.07428	318315
20.08055	299870
20.08680	322548
20.09305	358956
20.09932	400151
20.10557	392168
20.11182	349900
20.11808	323220
20.12433	289543
20.13058	293189
20.13685	288431
20.14310	313099
20.14935	331859
20.15562	341250
20.16187	332366
20.16812	324066
20.17438	319291
20.18063	316458
20.18688	322159
20.19315	340055
20.19940	358486
20.20565	380712
20.21192	398991
20.21817	429239
20.22442	449784
20.23068	477007
20.23693	464856
20.24318	445360
20.24945	399928
20.25570	370482
20.26195	352725
20.26822	333252
20.27447	332303
20.28072	355498
20.28697	486625
20.29323	812000
20.29948	1366809
20.30573	1754400
20.31200	1895642
20.31825	1543903
20.32450	988254
20.33077	602514
20.33702	439981
20.34327	428594
20.34953	440355
20.35578	435056
20.36203	410947
20.36830	355018
20.37455	344034
20.38080	333654
20.38707	326928
20.39332	337961
20.39957	321677
20.40583	322801
20.41208	358142
20.41833	425899
20.42460	667934
20.43085	1137156
20.43710	2080624
20.44337	2780870
20.44962	2834108
20.45587	2279523
20.46213	1349632
20.46838	811936
20.47463	734885
20.48090	913803
20.48715	1049357
20.49340	1139988
20.49965	924051
20.50592	633626
20.51217	476598
20.51842	435685
20.52468	427517
20.53093	408649
20.53718	426489
20.54345	494737
20.54970	601361
20.55595	661665
20.56222	661347
20.56847	559330
20.57472	454174
20.58098	397789
20.58723	395002
20.59348	435252
20.59975	447374
20.60600	407481
20.61225	341977
20.61852	297249
20.62477	273494
20.63102	251727
20.63728	252632
20.64353	264071
20.64978	286517
20.65605	314675
20.66230	334147
20.66855	331251
20.67482	321912
20.68107	305401
20.68732	281380
20.69358	273604
20.69983	286512
20.70608	385851
20.71235	631187
20.71860	1090987
20.72485	1534742
20.73110	1640974
20.73737	1367482
20.74362	951691
20.74987	663453
20.75613	621512
20.76238	802437
20.76863	1112649
20.77490	1247172
20.78115	1204892
20.78740	892731
20.79367	628772
20.79992	460557
20.80617	370412
20.81243	326477
20.81868	289104
20.82493	286195
20.83120	296702
20.83745	313355
20.84370	329895
20.84997	328517
20.85622	317591
20.86247	322317
20.86873	313009
20.87498	296607
20.88123	302232
20.88750	309447
20.89375	315212
20.90000	325620
20.90627	327013
20.91252	341542
20.91877	342312
20.92503	378020
20.93128	498951
20.93753	829918
20.94378	1347362
20.95005	1693120
20.95630	1662066
20.96255	1336956
20.96882	955187
20.97507	704485
20.98132	550435
20.98758	453988
20.99383	392906
21.00008	398123
21.00635	472265
21.01260	584270
21.01885	633419
21.02512	564332
21.03137	497817
21.03762	419023
21.04388	404621
21.05013	402639
21.05638	382351
21.06265	364302
21.06890	356200
21.07515	418546
21.08142	455633
21.08767	458654
21.09392	407325
21.10018	335061
21.10643	304414
21.11268	299486
21.11895	307461
21.12520	309186
21.13145	296862
21.13772	269358
21.14397	263099
21.15022	261358
21.15647	257871
21.16273	249338
21.16898	261163
21.17523	268409
21.18150	273666
21.18775	270941
21.19400	275268
21.20027	279044
21.20652	286499
21.21277	294090
21.21903	292348
21.22528	279332
21.23153	298069
21.23780	322747
21.24405	358317
21.25030	381516
21.25657	362576
21.26282	328240
21.26907	336494
21.27533	394603
21.28158	473691
21.28783	516218
21.29410	498725
21.30035	416725
21.30660	338841
21.31287	296193
21.31912	298893
21.32537	334095
21.33163	363551
21.33788	365801
21.34413	353158
21.35040	330252
21.35665	357775
21.36290	441092
21.36917	527230
21.37542	578730
21.38167	552118
21.38792	434824
21.39418	328810
21.40043	277333
21.40668	255482
21.41295	257212
21.41920	280137
21.42545	298692
21.43172	307920
21.43797	313434
21.44422	320739
21.45048	382363
21.45673	523152
21.46298	745437
21.46925	831177
21.47550	767766
21.48175	592780
21.48802	468376
21.49427	416942
21.50052	408074
21.50678	401220
21.51303	364707
21.51928	312861
21.52555	264176
21.53180	235333
21.53805	228479
21.54432	229588
21.55057	223654
21.55682	226935
21.56308	238517
21.56933	256670
21.57558	284669
21.58185	293436
21.58810	310236
21.59435	332593
21.60060	351306
21.60687	337803
21.61312	288862
21.61937	250196
21.62563	231345
21.63188	203877
21.63813	196285
21.64440	191767
21.65065	185190
21.65690	185329
21.66317	195066
21.66942	204902
21.67567	233295
21.68193	269294
21.68818	277451
21.69443	267934
21.70070	240564
21.70695	218888
21.71320	198981
21.71947	189791
21.72572	182888
21.73197	189929
21.73823	189867
21.74448	193727
21.75073	206194
21.75700	232390
21.76325	236345
21.76950	230204
21.77577	233299
21.78202	242508
21.78827	272668
21.79453	294183
21.80078	301074
21.80703	317676
21.81328	313494
21.81955	318156
21.82580	294343
21.83205	269849
21.83832	263371
21.84457	271519
21.85082	280864
21.85708	308430
21.86333	365751
21.86958	396447
21.87585	393575
21.88210	349256
21.88835	290106
21.89462	252063
21.90087	242579
21.90712	265911
21.91338	280637
21.91963	276852
21.92588	262135
21.93215	243345
21.93840	235952
21.94465	229643
21.95092	219108
21.95717	211385
21.96342	209169
21.96968	218352
21.97593	241606
21.98218	265291
21.98845	274201
21.99470	269356
22.00095	252797
22.00722	249636
22.01347	246546
22.01972	244995
22.02598	257336
22.03223	273794
22.03848	292533
22.04473	321186
22.05100	351442
22.05725	378652
22.06350	409542
22.06977	406336
22.07602	379911
22.08227	353352
22.08853	329568
22.09478	304531
22.10103	294843
22.10730	303031
22.11355	298961
22.11980	306817
22.12607	315656
22.13232	335841
22.13857	316391
22.14483	286482
22.15108	268300
22.15733	260712
22.16360	270319
22.16985	276094
22.17610	284180
22.18237	292078
22.18862	296389
22.19487	303048
22.20113	285818
22.20738	265575
22.21363	251381
22.21990	238910
22.22615	236241
22.23240	249505
22.23867	279045
22.24492	359839
22.25117	496800
22.25742	634683
22.26368	733078
22.26993	705553
22.27618	593124
22.28245	488559
22.28870	413650
22.29495	381821
22.30122	355857
22.30747	341146
22.31372	324633
22.31998	313439
22.32623	318217
22.33248	327974
22.33875	322438
22.34500	322481
22.35125	371959
22.35752	536183
22.36377	832741
22.37002	1051763
22.37628	1022389
22.38253	749736
22.38878	498234
22.39505	355038
22.40130	307850
22.40755	302709
22.41382	310576
22.42007	323997
22.42632	342869
22.43258	390404
22.43883	462075
22.44508	564369
22.45135	742537
22.45760	1007300
22.46385	1215261
22.47010	1186639
22.47637	873806
22.48262	629337
22.48887	482349
22.49513	415315
22.50138	376709
22.50763	347950
22.51390	326123
22.52015	300771
22.52640	309443
22.53267	354702
22.53892	467661
22.54517	649606
22.55143	819481
22.55768	850892
22.56393	776487
22.57020	621903
22.57645	492412
22.58270	409884
22.58897	357294
22.59522	344098
22.60147	335275
22.60773	323490
22.61398	323699
22.62023	323594
22.62650	322876
22.63275	333897
22.63900	364016
22.64527	394171
22.65152	398930
22.65777	384658
22.66403	358884
22.67028	360542
22.67653	424759
22.68280	473587
22.68905	510648
22.69530	463318
22.70155	411595
22.70782	344633
22.71407	306226
22.72032	285491
22.72658	293039
22.73283	296800
22.73908	332436
22.74535	336243
22.75160	330549
22.75785	332443
22.76412	338985
22.77037	353507
22.77662	431413
22.78288	740072
22.78913	1994286
22.79538	4832257
22.80165	9687617
22.80790	1.506214E+07
22.81415	1.807468E+07
22.82042	1.684458E+07
22.82667	1.091244E+07
22.83292	4669949
22.83918	1745494
22.84543	775410
22.85168	524285
22.85795	455803
22.86420	432896
22.87045	404096
22.87672	390396
22.88297	357419
22.88922	338257
22.89548	332744
22.90173	321241
22.90798	326332
22.91423	328451
22.92050	323316
22.92675	326518
22.93300	343097
22.93927	358084
22.94552	365243
22.95177	354303
22.95803	339429
22.96428	326920
22.97053	346653
22.97680	388650
22.98305	456596
22.98930	493676
22.99557	466498
23.00182	405512
23.00807	361147
23.01433	312129
23.02058	289947
23.02683	278164
23.03310	284432
23.03935	289348
23.04560	292606
23.05187	320229
23.05812	362827
23.06437	530630
23.07063	832461
23.07688	1252960
23.08313	1513093
23.08940	1368283
23.09565	959491
23.10190	596122
23.10817	397957
23.11442	309498
23.12067	276801
23.12693	263204
23.13318	249811
23.13943	244552
23.14568	242225
23.15195	242794
23.15820	235930
23.16445	225439
23.17072	224065
23.17697	230380
23.18322	238617
23.18948	240069
23.19573	257482
23.20198	253482
23.20825	262486
23.21450	255479
23.22075	244398
23.22702	233651
23.23327	226278
23.23952	232635
23.24578	233291
23.25203	238573
23.25828	251821
23.26455	244954
23.27080	238895
23.27705	229610
23.28332	237837
23.28957	247351
23.29582	294832
23.30208	404718
23.30833	541023
23.31458	747986
23.32085	836078
23.32710	746543
23.33335	586527
23.33962	419201
23.34587	326189
23.35212	287972
23.35837	262083
23.36463	251667
23.37088	246066
23.37713	282226
23.38340	285148
23.38965	301363
23.39590	303751
23.40217	295911
23.40842	300059
23.41467	276231
23.42093	280135
23.42718	285942
23.43343	290088
23.43970	303638
23.44595	340046
23.45220	360107
23.45847	380048
23.46472	415809
23.47097	430153
23.47723	482421
23.48348	546801
23.48973	614578
23.49600	655465
23.50225	720883
23.50850	841026
23.51477	1031078
23.52102	1100870
23.52727	1050257
23.53353	831063
23.53978	580871
23.54603	439840
23.55230	397609
23.55855	414768
23.56480	459863
23.57107	583994
23.57732	715501
23.58357	834077
23.58982	776014
23.59608	674915
23.60233	566026
23.60858	473816
23.61485	401672
23.62110	378915
23.62735	357545
23.63362	361695
23.63987	360647
23.64612	370060
23.65238	350333
23.65863	325854
23.66488	304589
23.67115	313950
23.67740	333032
23.68365	363824
23.68992	415851
23.69617	459223
23.70242	457889
23.70868	455553
23.71493	515491
23.72118	731028
23.72745	997686
23.73370	1161463
23.73995	1066085
23.74622	840736
23.75247	586355
23.75872	433938
23.76498	382482
23.77123	353740
23.77748	358409
23.78375	362625
23.79000	380758
23.79625	383571
23.80250	390294
23.80877	415713
23.81502	431261
23.82127	449837
23.82753	437929
23.83378	422566
23.84003	390606
23.84630	355582
23.85255	349254
23.85880	345396
23.86507	347766
23.87132	363868
23.87757	399558
23.88383	493740
23.89008	591620
23.89633	637588
23.90260	595153
23.90885	537994
23.91510	457463
23.92137	420935
23.92762	394254
23.93387	397331
23.94013	387106
23.94638	439603
23.95263	663485
23.95890	1353739
23.96515	3038393
23.97140	5725780
23.97767	9889684
23.98392	1.563949E+07
23.99017	2.313567E+07
23.99643	3.066456E+07
24.00268	3.68733E+07
24.00893	3.414611E+07
24.01518	2.493632E+07
24.02145	1.338419E+07
24.02770	5608213
24.03395	2426803
24.04022	1500198
24.04647	1141463
24.05272	936039
24.05898	849915
24.06523	851032
24.07148	942443
24.07775	1028805
24.08400	1052726
24.09025	1045898
24.09652	1313733
24.10277	2319344
24.10902	4350087
24.11528	6996188
24.12153	8975005
24.12778	8192368
24.13405	5569417
24.14030	3337497
24.14655	1713651
24.15282	966105
24.15907	720348
24.16532	643023
24.17158	614170
24.17783	672477
24.18408	828208
24.19035	1001182
24.19660	1444878
24.20285	2780005
24.20912	5932307
24.21537	1.212288E+07
24.22162	2.107271E+07
24.22788	3.109324E+07
24.23413	3.992969E+07
24.24038	4.440724E+07
24.24663	4.603264E+07
24.25290	4.623181E+07
24.25915	4.546303E+07
24.26540	4.437888E+07
24.27167	4.421543E+07
24.27792	3.461462E+07
24.28417	8623468
24.29043	3136857
24.29668	2227515
24.30293	1919242
24.30920	1711694
24.31545	1583339
24.32170	1469900
24.32797	1439326
24.33422	1410627
24.34047	1436815
24.34673	1440356
24.35298	1399988
24.35923	1479521
24.36550	1549670
24.37175	1630577
24.37800	1667310
24.38427	1623859
24.39052	1483402
24.39677	1353167
24.40303	1202110
24.40928	1171614
24.41553	1105321
24.42180	1168873
24.42805	1327058
24.43430	1692917
24.44057	2034196
24.44682	2263197
24.45307	2143522
24.45932	1645279
24.46558	1299531
24.47183	1015377
24.47808	850978
24.48435	778215
24.49060	746282
24.49685	688181
24.50312	668467
24.50937	649433
24.51562	638884
24.52188	647872
24.52813	606047
24.53438	596598
24.54065	603101
24.54690	592562
24.55315	568507
24.55942	551612
24.56567	540382
24.57192	559688
24.57818	531111
24.58443	537420
24.59068	564843
24.59695	533147
24.60320	529172
24.60945	487549
24.61572	470611
24.62197	437487
24.62822	432148
24.63448	392898
24.64073	383664
24.64698	407483
24.65325	376834
24.65950	357879
24.66575	358092
24.67202	363666
24.67827	365556
24.68452	395151
24.69077	373943
24.69703	371173
24.70328	353915
24.70953	347573
24.71580	346570
24.72205	339241
24.72830	320838
24.73457	304670
24.74082	304572
24.74707	294214
24.75333	288299
24.75958	292025
24.76583	312349
24.77210	330398
24.77835	337986
24.78460	333035
24.79087	310772
24.79712	286988
24.80337	263630
24.80963	245905
24.81588	239362
24.82213	237556
24.82840	233405
24.83465	231090
24.84090	220771
24.84717	227213
24.85342	233921
24.85967	241129
24.86593	251699
24.87218	274662
24.87843	296858
24.88470	324871
24.89095	343556
24.89720	350724
24.90345	336423
24.90972	329531
24.91597	333474
24.92222	378630
24.92848	398154
24.93473	394631
24.94098	355151
24.94725	360305
24.95350	382375
24.95975	402852
24.96602	386247
24.97227	339359
24.97852	298205
24.98478	274008
24.99103	254719
24.99728	245387
25.00355	241525
25.00980	242343
25.01605	233467
25.02232	238557
25.02857	246977
25.03482	250758
25.04108	258552
25.04733	253266
25.05358	244527
25.05985	234912
25.06610	227980
25.07235	232167
25.07862	232053
25.08487	234699
25.09112	230227
25.09738	228701
25.10363	225722
25.10988	222912
25.11613	230729
25.12240	241482
25.12865	254980
25.13490	253418
25.14117	248565
25.14742	235578
25.15367	218396
25.15993	205824
25.16618	210743
25.17243	238857
25.17870	299501
25.18495	386566
25.19120	447911
25.19747	468280
25.20372	398885
25.20997	311156
25.21623	246373
25.22248	217094
25.22873	198756
25.23500	200514
25.24125	193546
25.24750	193777
25.25377	194056
25.26002	199560
25.26627	197127
25.27253	202171
25.27878	246339
25.28503	324799
25.29130	446464
25.29755	520219
25.30380	513354
25.31007	441358
25.31632	343419
25.32257	270658
25.32883	231966
25.33508	208135
25.34133	197264
25.34758	195808
25.35385	190746
25.36010	192443
25.36635	194290
25.37262	202544
25.37887	201855
25.38512	209761
25.39138	254563
25.39763	317189
25.40388	406890
25.41015	513517
25.41640	552601
25.42265	485507
25.42892	387834
25.43517	319624
25.44142	275514
25.44768	255308
25.45393	232239
25.46018	225133
25.46645	216548
25.47270	211811
25.47895	222721
25.48522	257502
25.49147	330050
25.49772	459979
25.50398	562510
25.51023	545664
25.51648	505464
25.52275	430067
25.52900	377802
25.53525	437831
25.54152	542075
25.54777	629167
25.55402	576415
25.56027	448927
25.56653	319932
25.57278	250237
25.57903	214417
25.58530	198840
25.59155	198715
25.59780	198189
25.60407	196670
25.61032	204491
25.61657	201719
25.62283	189956
25.62908	191821
25.63533	192622
25.64160	183039
25.64785	175614
25.65410	174856
25.66037	173226
25.66662	166040
25.67287	178355
25.67913	175141
25.68538	171045
25.69163	173901
25.69790	174252
25.70415	169094
25.71040	167560
25.71667	167882
25.72292	164711
25.72917	170480
25.73543	171608
25.74168	176846
25.74793	183816
25.75420	184602
25.76045	180070
25.76670	177585
25.77295	182922
25.77922	174636
25.78547	172014
25.79172	170631
25.79798	159804
25.80423	164213
25.81048	156466
25.81675	158315
25.82300	157342
25.82925	162076
25.83552	159286
25.84177	159871
25.84802	162682
25.85428	160874
25.86053	168889
25.86678	171121
25.87305	167501
25.87930	160727
25.88555	164868
25.89182	161541
25.89807	159964
25.90432	160910
25.91058	161484
25.91683	155723
25.92308	160053
25.92935	167030
25.93560	172054
25.94185	173036
25.94812	173936
25.95437	170073
25.96062	166452
25.96688	162058
25.97313	168984
25.97938	170362
25.98565	175464
25.99190	170397
25.99815	177466
26.00440	168207
26.01067	161974
26.01692	166702
26.02317	168156
26.02943	172211
26.03568	168375
26.04193	169074
26.04820	172715
26.05445	172364
26.06070	173526
26.06697	167987
26.07322	167562
26.07947	161579
26.08573	164459
26.09198	161000
26.09823	161914
26.10450	168948
26.11075	171005
26.11700	172785
26.12327	169955
26.12952	166297
26.13577	160572
26.14203	157568
26.14828	159590
26.15453	160098
26.16080	158759
26.16705	158625
26.17330	165477
26.17957	164965
26.18582	166337
26.19207	164610
26.19833	163655
26.20458	160825
26.21083	156167
26.21708	156499
26.22335	162236
26.22960	157086
26.23585	155440
26.24212	157245
26.24837	158498
26.25462	156532
26.26088	157647
26.26713	155503
26.27338	157019
26.27965	157276
26.28590	155858
26.29215	154472
26.29842	159004
26.30467	158678
26.31092	163573
26.31718	160324
26.32343	161732
26.32968	162905
26.33595	162531
26.34220	161460
26.34845	164711
26.35472	174282
26.36097	191778
26.36722	238719
26.37348	327576
26.37973	451834
26.38598	506744
26.39225	457656
26.39850	359078
26.40475	262620
26.41102	209383
26.41727	190959
26.42352	186330
26.42977	179898
26.43603	175337
26.44228	171214
26.44853	171203
26.45480	178503
26.46105	174568
26.46730	181139
26.47357	174747
26.47982	177398
26.48607	179984
26.49233	182296
26.49858	177659
26.50483	178996
26.51110	171584
26.51735	179450
26.52360	191918
26.52987	205664
26.53612	212269
26.54237	210854
26.54863	196165
26.55488	184153
26.56113	176766
26.56740	171877
26.57365	174160
26.57990	173432
26.58617	170008
26.59242	175803
26.59867	178283
26.60493	184241
26.61118	192672
26.61743	194125
26.62370	193595
26.62995	191908
26.63620	186584
26.64247	189889
26.64872	204576
26.65497	258502
26.66122	335867
26.66748	453343
26.67373	529930
26.67998	518822
26.68625	441768
26.69250	378618
26.69875	342845
26.70502	319309
26.71127	306416
26.71752	271765
26.72378	244109
26.73003	220318
26.73628	205169
26.74255	213330
26.74880	224006
26.75505	270174
26.76132	338969
26.76757	408647
26.77382	429250
26.78008	403889
26.78633	360095
26.79258	331767
26.79885	328413
26.80510	315046
26.81135	301200
26.81762	300942
26.82387	360885
26.83012	498602
26.83638	653592
26.84263	796847
26.84888	754709
26.85515	578231
26.86140	393300
26.86765	297266
26.87390	275787
26.88017	297332
26.88642	346627
26.89267	435021
26.89893	648805
26.90518	1248246
26.91143	2951326
26.91770	6532400
26.92395	1.104961E+07
26.93020	1.591995E+07
26.93647	2.174909E+07
26.94272	2.412179E+07
26.94897	1.692214E+07
26.95523	7496220
26.96148	3077314
26.96773	1659046
26.97400	1068928
26.98025	711275
26.98650	492945
26.99277	397727
26.99902	356791
27.00527	359528
27.01153	448888
27.01778	609364
27.02403	768144
27.03030	825244
27.03655	693603
27.04280	524657
27.04907	411579
27.05532	365069
27.06157	345605
27.06783	329634
27.07408	317486
27.08033	291941
27.08660	272886
27.09285	265205
27.09910	256335
27.10535	244867
27.11162	246272
27.11787	262811
27.12412	292950
27.13038	351583
27.13663	394969
27.14288	408294
27.14915	381496
27.15540	326300
27.16165	286217
27.16792	269346
27.17417	270694
27.18042	267563
27.18668	263920
27.19293	256621
27.19918	255082
27.20545	248980
27.21170	248194
27.21795	261813
27.22422	250573
27.23047	247308
27.23672	248465
27.24298	254191
27.24923	258436
27.25548	262856
27.26175	268658
27.26800	249154
27.27425	240319
27.28052	235219
27.28677	241974
27.29302	238354
27.29928	230948
27.30553	242604
27.31178	235043
27.31803	238439
27.32430	231900
27.33055	226940
27.33680	230861
27.34307	229916
27.34932	235022
27.35557	239962
27.36183	244048
27.36808	247346
27.37433	244625
27.38060	253695
27.38685	250795
27.39310	252947
27.39937	268452
27.40562	281944
27.41187	291079
27.41813	295545
27.42438	276336
27.43063	259262
27.43690	246732
27.44315	237400
27.44940	232104
27.45567	228836
27.46192	219752
27.46817	220188
27.47443	215610
27.48068	227938
27.48693	222751
27.49320	218432
27.49945	224943
27.50570	224490
27.51197	217722
27.51822	217011
27.52447	217035
27.53073	218670
27.53698	217867
27.54323	225847
27.54948	225787
27.55575	222076
27.56200	213479
27.56825	219580
27.57452	214714
27.58077	219004
27.58702	224694
27.59328	231338
27.59953	224102
27.60578	228869
27.61205	231964
27.61830	222616
27.62455	228286
27.63082	227647
27.63707	223610
27.64332	224471
27.64958	223465
27.65583	222440
27.66208	224838
27.66835	225593
27.67460	232416
27.68085	228225
27.68712	234450
27.69337	226542
27.69962	234408
27.70588	226666
27.71213	239697
27.71838	241137
27.72465	247129
27.73090	242736
27.73715	242782
27.74342	233671
27.74967	237084
27.75592	244551
27.76217	241006
27.76843	246926
27.77468	237161
27.78093	235024
27.78720	236416
27.79345	232001
27.79970	230929
27.80597	223890
27.81222	233475
27.81847	224833
27.82473	230895
27.83098	228598
27.83723	231773
27.84350	258114
27.84975	306033
27.85600	377417
27.86227	462347
27.86852	511327
27.87477	501912
27.88103	451194
27.88728	376725
27.89353	322804
27.89980	294998
27.90605	292211
27.91230	271723
27.91857	270719
27.92482	255468
27.93107	253849
27.93733	252310
27.94358	258015
27.94983	257410
27.95610	252799
27.96235	251511
27.96860	248434
27.97487	248063
27.98112	259732
27.98737	257323
27.99362	262184
27.99988	262615
28.00613	268046
28.01238	260647
28.01865	260892
28.02490	253152
28.03115	259903
28.03742	251448
28.04367	253562
28.04992	247079
28.05618	247890
28.06243	243699
28.06868	243169
28.07495	248461
28.08120	241238
28.08745	238674
28.09372	251731
28.09997	241097
28.10622	242646
28.11248	246447
28.11873	251368
28.12498	248957
28.13125	244184
28.13750	250274
28.14375	246770
28.15002	252780
28.15627	255656
28.16252	249897
28.16878	243827
28.17503	250745
28.18128	243830
28.18755	249761
28.19380	249374
28.20005	252509
28.20630	244483
28.21257	244122
28.21882	244067
28.22507	252621
28.23133	259462
28.23758	255736
28.24383	250292
28.25010	252192
28.25635	254413
28.26260	262056
28.26887	266712
28.27512	261954
28.28137	264925
28.28763	276101
28.29388	271658
28.30013	274613
28.30640	287907
28.31265	278344
28.31890	285171
28.32517	294740
28.33142	296421
28.33767	307812
28.34393	312102
28.35018	317440
28.35643	312861
28.36270	322774
28.36895	324367
28.37520	326989
28.38147	332971
28.38772	326085
28.39397	337033
28.40023	343439
28.40648	347144
28.41273	342557
28.41898	368271
28.42525	356445
28.43150	333195
28.43775	318688
28.44402	313330
28.45027	311337
28.45652	306668
28.46278	295400
28.46903	291739
28.47528	291921
28.48155	283543
28.48780	284943
28.49405	287020
28.50032	274632
28.50657	276876
28.51282	280281
28.51908	277481
28.52533	267096
28.53158	275143
28.53785	271849
28.54410	266167
28.55035	266276
28.55662	258591
28.56287	256381
28.56912	267092
28.57538	263744
28.58163	264063
28.58788	267720
28.59415	259580
28.60040	253759
28.60665	255002
28.61292	265980
28.61917	260648
28.62542	260023
28.63168	254692
28.63793	255916
28.64418	254556
28.65043	269079
28.65670	256702
28.66295	279172
28.66920	280477
28.67547	252162
28.68172	256651
28.68797	256113
28.69423	246693
28.70048	251354
28.70673	251873
28.71300	250519
28.71925	256170
28.72550	266568
28.73177	263788
28.73802	259120
28.74427	258342
28.75053	254757
28.75678	246620
28.76303	248308
28.76930	245441
28.77555	247443
28.78180	249803
28.78807	252166
28.79432	246151
28.80057	253254
28.80683	244090
28.81308	243652
28.81933	243869
28.82560	247214
28.83185	250023
28.83810	249909
28.84437	242305
28.85062	244144
28.85687	244408
28.86312	249305
28.86938	241995
28.87563	237133
28.88188	243646
28.88815	240884
28.89440	236758
28.90065	239997
28.90692	252571
28.91317	248208
28.91942	241492
28.92568	246486
28.93193	248685
28.93818	246972
28.94445	241863
28.95070	237403
28.95695	241666
28.96322	248994
28.96947	249618
28.97572	248105
28.98198	247016
28.98823	240453
28.99448	241607
29.00075	248858
29.00700	243295
29.01325	251623
29.01952	243222
29.02577	240370
29.03202	245985
29.03828	237470
29.04453	237542
29.05078	243107
29.05705	247453
29.06330	242287
29.06955	239160
29.07580	239580
29.08207	248385
29.08832	237824
29.09457	250433
29.10083	283870
29.10708	242434
29.11333	238241
29.11960	248899
29.12585	242479
29.13210	237595
29.13837	235063
29.14462	246056
29.15087	245943
29.15713	242233
29.16338	235254
29.16963	243785
29.17590	244575
29.18215	242326
29.18840	231973
29.19467	242675
29.20092	242263
29.20717	254633
29.21343	258827
29.21968	271334
29.22593	302609
29.23220	329512
29.23845	351934
29.24470	378365
29.25097	373241
29.25722	349181
29.26347	325647
29.26973	300998
29.27598	282755
29.28223	269676
29.28850	266459
29.29475	261500
29.30100	254878
29.30725	249060
29.31352	259540
29.31977	245936
29.32602	244625
29.33228	252314
29.33853	247384
29.34478	247754
29.35105	251340
29.35730	246606
29.36355	245059
29.36982	250771
29.37607	244725
29.38232	238328
29.38858	252726
29.39483	249373
29.40108	243911
29.40735	238336
29.41360	235781
29.41985	239910
29.42612	244405
29.43237	249255
29.43862	242501
29.44488	243878
29.45113	241782
29.45738	241739
29.46365	243922
29.46990	236782
29.47615	234358
29.48242	238418
29.48867	242672
29.49492	239281
29.50118	243233
29.50743	237026
29.51368	235054
29.51995	241410
29.52620	235070
29.53245	234146
29.53870	243236
29.54497	241673
29.55122	242333
29.55747	231728
29.56373	230042
29.56998	233426
29.57623	229402
29.58250	239549
29.58875	238593
29.59500	234573
29.60127	238376
29.60752	237631
29.61377	230826
29.62003	237353
29.62628	234623
29.63253	235749
29.63880	240223
29.64505	232881
29.65130	239267
29.65757	238037
29.66382	232011
29.67007	228169
29.67633	228032
29.68258	238716
29.68883	228533
29.69510	229437
29.70135	229412
29.70760	228773
29.71387	225071
29.72012	226133
29.72637	236995
29.73263	226803
29.73888	235116
29.74513	227821
29.75138	232428
29.75765	230843
29.76390	230075
29.77015	229755
29.77642	224271
29.78267	236832
29.78892	231431
29.79518	233660
29.80143	227084
29.80768	231553
29.81395	232261
29.82020	225743
29.82645	227808
29.83272	229049
29.83897	228177
29.84522	229905
29.85148	235128
29.85773	226004
29.86398	228321
29.87025	231876
29.87650	224994
29.88275	224392
29.88902	238691
29.89527	225698
29.90152	233478
29.90778	227700
29.91403	226594
29.92028	226045
29.92655	228507
29.93280	233092
29.93905	227002
29.94532	227985
29.95157	223674
29.95782	224288
29.96408	222959
29.97033	223312
29.97658	224015
29.98283	231792
29.98910	272747
29.99535	277220
30.00160	275860
30.00787	286121
30.01412	290078
30.02037	286483
30.02663	277048
30.03288	270970
30.03913	262215
30.04540	283730
30.05165	279289
30.05790	285358
30.06417	266985
30.07042	291023
30.07667	287168
30.08293	284104
30.08918	269120
30.09543	274360
30.10170	271560
30.10795	280013
30.11420	295996
30.12047	287750
30.12672	294056
30.13297	298357
30.13923	286321
30.14548	295167
30.15173	296043
30.15800	286838
30.16425	287539
30.17050	293629
30.17677	280791
30.18302	291373
30.18927	292586
30.19552	284192
30.20178	296608
30.20803	288077
30.21428	280439
30.22055	293658
30.22680	282093
30.23305	283423
30.23932	289666
30.24557	282773
30.25182	292354
30.25808	280659
30.26433	284414
30.27058	290796
30.27685	275792
30.28310	291444
30.28935	284880
30.29562	280217
30.30187	287667
30.30812	282922
30.31438	281709
30.32063	281802
30.32688	290366
30.33315	283472
30.33940	276570
30.34565	288383
30.35192	279754
30.35817	275372
30.36442	279686
30.37068	280072
30.37693	278807
30.38318	279189
30.38945	287618
30.39570	278358
30.40195	280911
30.40820	280472
30.41447	273913
30.42072	275659
30.42697	280291
30.43323	289603
30.43948	274778
30.44573	275347
30.45200	284203
30.45825	285686
30.46450	280353
30.47077	288061
30.47702	277878
30.48327	285748
30.48953	283661
30.49578	278399
30.50203	283330
30.50830	283173
30.51455	278287
30.52080	279380
30.52707	286097
30.53332	278817
30.53957	278564
30.54583	274209
30.55208	284927
30.55833	277633
30.56460	280449
30.57085	278279
30.57710	284114
30.58337	282061
30.58962	275208
30.59587	275043
30.60213	275678
30.60838	274673
30.61463	272661
30.62090	283006
30.62715	278354
30.63340	274498
30.63965	272973
30.64592	276219
30.65217	285509
30.65842	283365
30.66468	275364
30.67093	291714
30.67718	283686
30.68345	291869
30.68970	294776
30.69595	305507
30.70222	310783
30.70847	306714
30.71472	294786
30.72098	288780
30.72723	287195
30.73348	286164
30.73975	279872
30.74600	281156
30.75225	286356
30.75852	279114
30.76477	284133
30.77102	284631
30.77728	278310
30.78353	286037
30.78978	281497
30.79605	270889
30.80230	272254
30.80855	276884
30.81482	270012
30.82107	281892
30.82732	268559
30.83358	277957
30.83983	270170
30.84608	272727
30.85233	265572
30.85860	279969
30.86485	280252
30.87110	271571
30.87737	269785
30.88362	269884
30.88987	268509
30.89613	279488
30.90238	283968
30.90863	283170
30.91490	283086
30.92115	283297
30.92740	280559
30.93367	285353
30.93992	282830
30.94617	271554
30.95243	280745
30.95868	284627
30.96493	284920
30.97120	284312
30.97745	296767
30.98370	296545
30.98997	302728
30.99622	325173
31.00247	316821
31.00873	333170
31.01498	324084
31.02123	334609
31.02750	325570
31.03375	319885
31.04000	294195
31.04627	289368
31.05252	286456
31.05877	284207
31.06502	284555
31.07128	282859
31.07753	287430
31.08378	280625
31.09005	271378
31.09630	279359
31.10255	270019
31.10882	270728
31.11507	274892
31.12132	266586
31.12758	269522
31.13383	271221
31.14008	270743
31.14635	280773
31.15260	275958
31.15885	267395
31.16512	268213
31.17137	277027
31.17762	275866
31.18388	270801
31.19013	275528
31.19638	263071
31.20265	272939
31.20890	263252
31.21515	275312
31.22142	264772
31.22767	273280
31.23392	270293
31.24018	277125
31.24643	263571
31.25268	274086
31.25895	262198
31.26520	265045
31.27145	278526
31.27772	259296
31.28397	271848
31.29022	263740
31.29647	261357
31.30273	272907
31.30898	272996
31.31523	266097
31.32150	271431
31.32775	264542
31.33400	272487
31.34027	274099
31.34652	265869
31.35277	265979
31.35903	276143
31.36528	276020
31.37153	269165
31.37780	269211
31.38405	276282
31.39030	271468
31.39657	273074
31.40282	266434
31.40907	267037
31.41533	276008
31.42158	276911
31.42783	262852
31.43410	264019
31.44035	265295
31.44660	264407
31.45287	264834
31.45912	260996
31.46537	266055
31.47163	275295
31.47788	269245
31.48413	261803
31.49040	260632
31.49665	264602
31.50290	262350
31.50915	269856
31.51542	265068
31.52167	263995
31.52792	258715
31.53418	261588
31.54043	267225
31.54668	269090
31.55295	259005
31.55920	268421
31.56545	257609
31.57172	266608
31.57797	267189
31.58422	268483
31.59048	258559
31.59673	256530
31.60298	270520
31.60925	264569
31.61550	257541
31.62175	265667
31.62802	266113
31.63427	263403
31.64052	254329
31.64678	261235
31.65303	254910
31.65928	263272
31.66555	261540
31.67180	264438
31.67805	255600
31.68432	252541
31.69057	254312
31.69682	252614
31.70308	254308
31.70933	249476
31.71558	255871
31.72183	254518
31.72810	260474
31.73435	256588
31.74060	256853
31.74687	254157
31.75312	263586
31.75937	250666
31.76563	251984
31.77188	260810
31.77813	250777
31.78440	252382
31.79065	260905
31.79690	258391
31.80317	255843
31.80942	262447
31.81567	250090
31.82193	251661
31.82818	258241
31.83443	254663
31.84070	259444
31.84695	259125
31.85320	257882
31.85947	248206
31.86572	253657
31.87197	251789
31.87823	256778
31.88448	255997
31.89073	255375
31.89700	253861
31.90325	259473
31.90950	261037
31.91577	251627
31.92202	260509
31.92827	257086
31.93453	257995
31.94078	257529
31.94703	249908
31.95328	245021
31.95955	256227
31.96580	248459
31.97205	243957
31.97832	249385
31.98457	245235
31.99082	259420
31.99708	248525
32.00333	259458
32.00958	247057
32.01585	256195
32.02210	246094
32.02835	246602
32.03462	247770
32.04087	248141
32.04712	245135
32.05338	253011
32.05963	257606
32.06588	250734
32.07215	244921
32.07840	258268
32.08465	245262
32.09092	253540
32.09717	243227
32.10342	246406
32.10968	246739
32.11593	250915
32.12218	246541
32.12845	241404
32.13470	252577
32.14095	250335
32.14722	246442
32.15347	253824
32.15972	240550
32.16597	246063
32.17223	247129
32.17848	235690
32.18473	246870
32.19100	247268
32.19725	252319
32.20350	246749
32.20977	244027
32.21602	243617
32.22227	245250
32.22853	254776
32.23478	244090
32.24103	246072
32.24730	241558
32.25355	251278
32.25980	247379
32.26607	243286
32.27232	246093
32.27857	250862
32.28483	255661
32.29108	246859
32.29733	244668
32.30360	244245
32.30985	251500
32.31610	251535
32.32237	246828
32.32862	248714
32.33487	248601
32.34113	249778
32.34738	238054
32.35363	240863
32.35990	243154
32.36615	238834
32.37240	241081
32.37867	242979
32.38492	249309
32.39117	241440
32.39742	247380
32.40368	237464
32.40993	241182
32.41618	238834
32.42245	242118
32.42870	238723
32.43495	244057
32.44122	238962
32.44747	248760
32.45372	244603
32.45998	245306
32.46623	249788
32.47248	239526
32.47875	239631
32.48500	246091
32.49125	241299
32.49752	239498
32.50377	249036
32.51002	240833
32.51628	250499
32.52253	238324
32.52878	240704
32.53505	247857
32.54130	251019
32.54755	244125
32.55382	245490
32.56007	245090
32.56632	246567
32.57258	235061
32.57883	235272
32.58508	237991
32.59135	238570
32.59760	241284
32.60385	245941
32.61012	239312
32.61637	245956
32.62262	239533
32.62887	238224
32.63513	243991
32.64138	245369
32.64763	243654
32.65390	248453
32.66015	236261
32.66640	235443
32.67267	244562
32.67892	246137
32.68517	246140
32.69143	234951
32.69768	240845
32.70393	234739
32.71020	238758
32.71645	241912
32.72270	245531
32.72897	240116
32.73522	242375
32.74147	233630
32.74773	245827
32.75398	234685
32.76023	235068
32.76650	228833
32.77275	233894
32.77900	246267
32.78527	239613
32.79152	231765
32.79777	230146
32.80403	245058
32.81028	234106
32.81653	239206
32.82280	245651
32.82905	239424
32.83530	233689
32.84155	232737
32.84782	232558
32.85407	246469
32.86032	232136
32.86658	236428
32.87283	244556
32.87908	241053
32.88535	242081
32.89160	236297
32.89785	240377
32.90412	239814
32.91037	240913
32.91662	231531
32.92288	239955
32.92913	242840
32.93538	229546
32.94165	229063
32.94790	234023
32.95415	228972
32.96042	238148
32.96667	238096
32.97292	240849
32.97918	226311
32.98543	241701
32.99168	230335
32.99795	228211
33.00420	231937
33.01045	228200
33.01672	233895
33.02297	235697
33.02922	229294
33.03548	235029
33.04173	237125
33.04798	239882
33.05423	228217
33.06050	238996
33.06675	229726
33.07300	228716
33.07927	228073
33.08552	238550
33.09177	238632
33.09803	223964
33.10428	233324
33.11053	230783
33.11680	239941
33.12305	234158
33.12930	242628
33.13557	244903
33.14182	237528
33.14807	240271
33.15433	242475
33.16058	241778
33.16683	251692
33.17310	250024
33.17935	251208
33.18560	242173
33.19187	249318
33.19812	244772
33.20437	246168
33.21063	246001
33.21688	238686
33.22313	239525
33.22940	232864
33.23565	241356
33.24190	238989
33.24817	232904
33.25442	236725
33.26067	234687
33.26693	231622
33.27318	225016
33.27943	229617
33.28568	233513
33.29195	233461
33.29820	236244
33.30445	223557
33.31072	237004
33.31697	229155
33.32322	232031
33.32948	230461
33.33573	238748
33.34198	240351
33.34825	238394
33.35450	236649
33.36075	245313
33.36702	240669
33.37327	243061
33.37952	252532
33.38578	248567
33.39203	239671
33.39828	239330
33.40455	245259
33.41080	236648
33.41705	231638
33.42332	233728
33.42957	242319
33.43582	228950
33.44208	232418
33.44833	235571
33.45458	232937
33.46085	225018
33.46710	234855
33.47335	227120
33.47962	234844
33.48587	234515
33.49212	225198
33.49837	226175
33.50463	231831
33.51088	228091
33.51713	232290
33.52340	230695
33.52965	230383
33.53590	227243
33.54217	229153
33.54842	231588
33.55467	227909
33.56093	228230
33.56718	224372
33.57343	222019
33.57970	221459
33.58595	220229
33.59220	229536
33.59847	225328
33.60472	221114
33.61097	219502
33.61723	223264
33.62348	226220
33.62973	230887
33.63600	234297
33.64225	220360
33.64850	227434
33.65477	224431
33.66102	230696
33.66727	228008
33.67353	231695
33.67978	221510
33.68603	221106
33.69230	230327
33.69855	227905
33.70480	223458
33.71105	227959
33.71732	227994
33.72357	220291
33.72982	226478
33.73608	217609
33.74233	221344
33.74858	223481
33.75485	223066
33.76110	225836
33.76735	222006
33.77362	224649
33.77987	221476
33.78612	225264
33.79238	222431
33.79863	226039
33.80488	227418
33.81115	219979
33.81740	226049
33.82365	218297
33.82992	228756
33.83617	215348
33.84242	220192
33.84868	221816
33.85493	219822
33.86118	222144
33.86745	213916
33.87370	219151
33.87995	218986
33.88622	223144
33.89247	225283
33.89872	216525
33.90498	218411
33.91123	218222
33.91748	223022
33.92375	219265
33.93000	219725
33.93625	215347
33.94250	223251
33.94877	216597
33.95502	223227
33.96127	214565
33.96753	223198
33.97378	215588
33.98003	221633
33.98630	221314
33.99255	214352
33.99880	218964
34.00507	213657
34.01132	218383
34.01757	216840
34.02383	214730
34.03008	220731
34.03633	215480
34.04260	218644
34.04885	213347
34.05510	217407
34.06137	214612
34.06762	215410
34.07387	214085
34.08013	220139
34.08638	221361
34.09263	222814
34.09890	214521
34.10515	216665
34.11140	214665
34.11767	213274
34.12392	220880
34.13017	214738
34.13643	213618
34.14268	215521
34.14893	214047
34.15518	207303
34.16145	214164
34.16770	224031
34.17395	214858
34.18022	212949
34.18647	223896
34.19272	213192
34.19898	221369
34.20523	211782
34.21148	217270
34.21775	211006
34.22400	220749
34.23025	211735
34.23652	214201
34.24277	221743
34.24902	215470
34.25528	217778
34.26153	219385
34.26778	213973
34.27405	219474
34.28030	212174
34.28655	217139
34.29282	215666
34.29907	214720
34.30532	213479
34.31158	214310
34.31783	218272
34.32408	218731
34.33035	211162
34.33660	217690
34.34285	218735
34.34912	212797
34.35537	218939
34.36162	209267
34.36788	218112
34.37413	219317
34.38038	215993
34.38663	217931
34.39290	208952
34.39915	207833
34.40540	218289
34.41167	209367
34.41792	207340
34.42417	207277
34.43043	214654
34.43668	210879
34.44293	211328
34.44920	208679
34.45545	208182
34.46170	209971
34.46797	214854
34.47422	217780
34.48047	208498
34.48673	205715
34.49298	208557
34.49923	216559
34.50550	215681
34.51175	211432
34.51800	206223
34.52427	208781
34.53052	212509
34.53677	210346
34.54303	216784
34.54928	209466
34.55553	208650
34.56180	204897
34.56805	210031
34.57430	207194
34.58057	211236
34.58682	207550
34.59307	216804
34.59932	217949
34.60558	213097
34.61183	207815
34.61808	206667
34.62435	207310
34.63060	211898
34.63685	209660
34.64312	206448
34.64937	210853
34.65562	207894
34.66188	210308
34.66813	205248
34.67438	213321
34.68065	209391
34.68690	206358
34.69315	204032
34.69942	208072
34.70567	213822
34.71192	214753
34.71818	214882
34.72443	209358
34.73068	204261
34.73695	212361
34.74320	207394
34.74945	213160
34.75572	212161
34.76197	213601
34.76822	208913
34.77448	205849
34.78073	209383
34.78698	207274
34.79325	207653
34.79950	207600
34.80575	204602
34.81202	210497
34.81827	203265
34.82452	204854
34.83077	208609
34.83703	207472
34.84328	205649
34.84953	208998
34.85580	206564
34.86205	218474
34.86830	206837
34.87457	208497
34.88082	211983
34.88707	202914
34.89333	210111
34.89958	212215
34.90583	206723
34.91210	206470
34.91835	210174
34.92460	205462
34.93087	209185
34.93712	205814
34.94337	208687
34.94963	212056
34.95588	206762
34.96213	210947
34.96840	213217
34.97465	212879
34.98090	208421
34.98717	200536
34.99342	212860
34.99967	210660
35.00593	203664
35.01218	200984
35.01843	204350
35.02470	202818
35.03095	203807
35.03720	201746
35.04345	203346
35.04972	201438
35.05597	205097
35.06222	205991
35.06848	201745
35.07473	202148
35.08098	206370
35.08725	205439
35.09350	200161
35.09975	203510
35.10602	209882
35.11227	204022
35.11852	202814
35.12478	205737
35.13103	207779
35.13728	209990
35.14355	209129
35.14980	201675
35.15605	206751
35.16232	200125
35.16857	203395
35.17482	201685
35.18108	208862
35.18733	200713
35.19358	200128
35.19985	200932
35.20610	205416
35.21235	200153
35.21862	202350
35.22487	198933
35.23112	209054
35.23738	198051
35.24363	204684
35.24988	206000
35.25615	198057
35.26240	200171
35.26865	196206
35.27490	207062
35.28117	201647
35.28742	201260
35.29367	198633
35.29993	203715
35.30618	206536
35.31243	204727
35.31870	201856
35.32495	200199
35.33120	197756
35.33747	203448
35.34372	207792
35.34997	200157
35.35623	199751
35.36248	204586
35.36873	198056
35.37500	200550
35.38125	202072
35.38750	206422
35.39377	195129
35.40002	200164
35.40627	196594
35.41253	204865
35.41878	198617
35.42503	201441
35.43130	206400
35.43755	204768
35.44380	207506
35.45007	200244
35.45632	197291
35.46257	196009
35.46883	197076
35.47508	202741
35.48133	204888
35.48758	197289
35.49385	209152
35.50010	201383
35.50635	201158
35.51262	197398
35.51887	197317
35.52512	206355
35.53138	198551
35.53763	197627
35.54388	203372
35.55015	205620
35.55640	207752
35.56265	199642
35.56892	196599
35.57517	199908
35.58142	204660
35.58768	199330
35.59393	198861
35.60018	199605
35.60645	201508
35.61270	197976
35.61895	198432
35.62522	198581
35.63147	198297
35.63772	197836
35.64398	194940
35.65023	201428
35.65648	196144
35.66275	199198
35.66900	200271
35.67525	201382
35.68152	201537
35.68777	198443
35.69402	201178
35.70027	200927
35.70653	197389
35.71278	193741
35.71903	192788
35.72530	200082
35.73155	202363
35.73780	195496
35.74407	195354
35.75032	199525
35.75657	191695
35.76283	195148
35.76908	199743
35.77533	199159
35.78160	191933
35.78785	194445
35.79410	189606
35.80037	198624
35.80662	194709
35.81287	200996
35.81913	193989
35.82538	193920
35.83163	200064
35.83790	202368
35.84415	202204
35.85040	197791
35.85667	188180
35.86292	201410
35.86917	191380
35.87543	193395
35.88168	201913
35.88793	196313
35.89420	200189
35.90045	196012
35.90670	196605
35.91297	200578
35.91922	192858
35.92547	197892
35.93172	194318
35.93798	200831
35.94423	190132
35.95048	197732
35.95675	199326
35.96300	192169
35.96925	196234
35.97552	194233
35.98177	189242
35.98802	193380
35.99428	197539
36.00053	194524
36.00678	188955
36.01305	196403
36.01930	195383
36.02555	188777
36.03182	192621
36.03807	194881
36.04432	198010
36.05058	188480
36.05683	198706
36.06308	188667
36.06935	191939
36.07560	194249
36.08185	191731
36.08812	194793
36.09437	187552
36.10062	185201
36.10688	189458
36.11313	190500
36.11938	188126
36.12565	192244
36.13190	197778
36.13815	187230
36.14440	192259
36.15067	195220
36.15692	196332
36.16317	191372
36.16943	189246
36.17568	190850
36.18193	192438
36.18820	188883
36.19445	192098
36.20070	199242
36.20697	198308
36.21322	191177
36.21947	192935
36.22573	202305
36.23198	196693
36.23823	207140
36.24450	212455
36.25075	217037
36.25700	222516
36.26327	227787
36.26952	244817
36.27577	256922
36.28203	265374
36.28828	281766
36.29453	292389
36.30080	301659
36.30705	301797
36.31330	308811
36.31957	314855
36.32582	324916
36.33207	320536
36.33833	312295
36.34458	298922
36.35083	292107
36.35708	280761
36.36335	264790
36.36960	257610
36.37585	253616
36.38212	234722
36.38837	240307
36.39462	228591
36.40088	223079
36.40713	215662
36.41338	217800
36.41965	211675
36.42590	203745
36.43215	213296
36.43842	208509
36.44467	202468
36.45092	209309
36.45718	199600
36.46343	204150
36.46968	198017
36.47595	195559
36.48220	196688
36.48845	193712
36.49472	201060
36.50097	195836
36.50722	202154
36.51348	187447
36.51973	196598
36.52598	201799
36.53225	196945
36.53850	197570
36.54475	203278
36.55102	191368
36.55727	193495
36.56352	197005
36.56978	198441
36.57603	198825
36.58228	198098
36.58853	193305
36.59480	192443
36.60105	196163
36.60730	196329
36.61357	196688
36.61982	202553
36.62607	198652
36.63233	195666
36.63858	199149
36.64483	195428
36.65110	193215
36.65735	191995
36.66360	196815
36.66987	191272
36.67612	188776
36.68237	189012
36.68863	192555
36.69488	189073
36.70113	189019
36.70740	192435
36.71365	188905
36.71990	198257
36.72617	187542
36.73242	191419
36.73867	189559
36.74493	189656
36.75118	186962
36.75743	194100
36.76370	193397
36.76995	191848
36.77620	192141
36.78247	192753
36.78872	188469
36.79497	189312
36.80122	186653
36.80748	188071
36.81373	187619
36.81998	187310
36.82625	184647
36.83250	188246
36.83875	196684
36.84502	189490
36.85127	187936
36.85752	189956
36.86378	191998
36.87003	185618
36.87628	188181
36.88255	190781
36.88880	187813
36.89505	186129
36.90132	184383
36.90757	189612
36.91382	184670
36.92008	191449
36.92633	186659
36.93258	192166
36.93885	192551
36.94510	181688
36.95135	189242
36.95762	185091
36.96387	190763
36.97012	187477
36.97638	182418
36.98263	185789
36.98888	184682
36.99515	184866
37.00140	186031
37.00765	182451
37.01392	186618
37.02017	184543
37.02642	184004
37.03267	184425
37.03893	182083
37.04518	183329
37.05143	182906
37.05770	185405
37.06395	187602
37.07020	185475
37.07647	183111
37.08272	184186
37.08897	187456
37.09523	189278
37.10148	192166
37.10773	190488
37.11400	190032
37.12025	185331
37.12650	188092
37.13277	185228
37.13902	183264
37.14527	188847
37.15153	183528
37.15778	188136
37.16403	178551
37.17030	179420
37.17655	183589
37.18280	186857
37.18907	184860
37.19532	182521
37.20157	183694
37.20783	182175
37.21408	179787
37.22033	189953
37.22660	182859
37.23285	182604
37.23910	180449
37.24535	185268
37.25162	182779
37.25787	180437
37.26412	179886
37.27038	180820
37.27663	182364
37.28288	189774
37.28915	184526
37.29540	178914
37.30165	181537
37.30792	182028
37.31417	176139
37.32042	181385
37.32668	183527
37.33293	178377
37.33918	185102
37.34545	188012
37.35170	178441
37.35795	182131
37.36422	178349
37.37047	179799
37.37672	183889
37.38298	184337
37.38923	185513
37.39548	181218
37.40175	176119
37.40800	182304
37.41425	180328
37.42052	175567
37.42677	178133
37.43302	185892
37.43928	179215
37.44553	177800
37.45178	179027
37.45805	184053
37.46430	177396
37.47055	181842
37.47680	182078
37.48307	178200
37.48932	176463
