D:\MassHunter\GCMS\1\data\metastasis_lineages_3replicates_3runs_10302020\M_plate2_run2_10302020.D Sat Oct 31 05:10:01 2020
Start of data points
5.99362	156478
5.99987	168283
6.00612	175375
6.01238	187647
6.01863	183874
6.02488	176367
6.03115	179345
6.03740	196353
6.04365	200854
6.04990	193442
6.05617	178300
6.06242	174167
6.06867	180132
6.07493	172328
6.08118	162576
6.08743	160131
6.09370	231032
6.09995	493110
6.10620	879729
6.11247	1014728
6.11872	772217
6.12497	417955
6.13123	239187
6.13748	196803
6.14373	190894
6.15000	268694
6.15625	457931
6.16250	779186
6.16877	994653
6.17502	899032
6.18127	581007
6.18753	338260
6.19378	231043
6.20003	186773
6.20630	162863
6.21255	156018
6.21880	155937
6.22507	174615
6.23132	174296
6.23757	186622
6.24383	168438
6.25008	155010
6.25633	153825
6.26258	155696
6.26885	164041
6.27510	171756
6.28135	173009
6.28762	164657
6.29387	162332
6.30012	158258
6.30638	153523
6.31263	170006
6.31888	182105
6.32515	217820
6.33140	288787
6.33765	404312
6.34392	398560
6.35017	302654
6.35642	211427
6.36268	178867
6.36893	180578
6.37518	179468
6.38145	180965
6.38770	176201
6.39395	194827
6.40022	269667
6.40647	461315
6.41272	664146
6.41898	709587
6.42523	746297
6.43148	904432
6.43775	921126
6.44400	672032
6.45025	410742
6.45652	460676
6.46277	975472
6.46902	2284668
6.47527	4972777
6.48153	1.054756E+07
6.48778	1.943478E+07
6.49403	2.752206E+07
6.50030	2.774547E+07
6.50655	1.566768E+07
6.51280	3944527
6.51907	722054
6.52532	333797
6.53157	319670
6.53783	365640
6.54408	459721
6.55033	714592
6.55660	1360095
6.56285	2389447
6.56910	2828070
6.57537	2072462
6.58162	1011685
6.58787	483130
6.59413	340558
6.60038	302539
6.60663	270222
6.61290	264753
6.61915	257429
6.62540	259133
6.63167	272970
6.63792	289135
6.64417	287509
6.65043	265348
6.65668	264073
6.66293	320540
6.66920	423675
6.67545	470765
6.68170	408892
6.68797	312116
6.69422	271680
6.70047	265172
6.70672	270584
6.71298	287487
6.71923	307478
6.72548	316758
6.73175	321517
6.73800	336299
6.74425	343450
6.75052	357688
6.75677	349299
6.76302	355528
6.76928	349364
6.77553	348378
6.78178	361980
6.78805	368071
6.79430	397693
6.80055	415601
6.80682	422987
6.81307	430039
6.81932	439240
6.82558	443589
6.83183	452093
6.83808	491409
6.84435	556786
6.85060	596334
6.85685	565613
6.86312	509660
6.86937	480078
6.87562	501396
6.88188	555638
6.88813	626383
6.89438	625213
6.90065	562654
6.90690	496267
6.91315	455363
6.91940	433176
6.92567	421417
6.93192	414009
6.93817	419174
6.94443	420958
6.95068	417970
6.95693	404023
6.96320	380965
6.96945	369589
6.97570	369775
6.98197	366280
6.98822	357075
6.99447	327269
7.00073	316265
7.00698	297871
7.01323	290770
7.01950	310768
7.02575	370404
7.03200	513105
7.03827	929664
7.04452	1824969
7.05077	2755115
7.05703	2767194
7.06328	1807610
7.06953	828251
7.07580	358401
7.08205	219265
7.08830	186795
7.09457	173657
7.10082	153466
7.10707	150247
7.11333	145316
7.11958	137357
7.12583	137248
7.13210	148885
7.13835	169980
7.14460	162478
7.15085	148892
7.15712	139080
7.16337	128924
7.16962	127990
7.17588	127083
7.18213	130580
7.18838	126628
7.19465	126623
7.20090	129876
7.20715	125100
7.21342	126631
7.21967	123911
7.22592	116075
7.23218	125244
7.23843	143573
7.24468	159459
7.25095	195141
7.25720	290426
7.26345	453836
7.26972	558495
7.27597	505771
7.28222	359257
7.28848	250807
7.29473	185484
7.30098	165800
7.30725	151481
7.31350	139245
7.31975	131501
7.32602	122855
7.33227	116412
7.33852	115125
7.34478	116170
7.35103	115844
7.35728	116655
7.36353	112590
7.36980	112118
7.37605	118824
7.38230	131891
7.38857	158521
7.39482	165007
7.40107	155035
7.40733	158761
7.41358	221441
7.41983	368110
7.42610	521176
7.43235	549330
7.43860	433884
7.44487	272467
7.45112	182256
7.45737	150837
7.46363	151465
7.46988	164657
7.47613	165985
7.48240	178780
7.48865	185739
7.49490	190486
7.50117	174264
7.50742	146099
7.51367	128696
7.51993	113995
7.52618	115305
7.53243	111801
7.53870	117134
7.54495	150956
7.55120	416866
7.55747	1690221
7.56372	5589209
7.56997	1.298532E+07
7.57623	2.15824E+07
7.58248	2.686848E+07
7.58873	2.576231E+07
7.59498	1.508108E+07
7.60125	5036521
7.60750	2219844
7.61375	1572118
7.62002	1134530
7.62627	804648
7.63252	576652
7.63878	381787
7.64503	256839
7.65128	202656
7.65755	189050
7.66380	189845
7.67005	222885
7.67632	289902
7.68257	345174
7.68882	320546
7.69508	253766
7.70133	180868
7.70758	182466
7.71385	236700
7.72010	330725
7.72635	382333
7.73262	354329
7.73887	281539
7.74512	231925
7.75138	187996
7.75763	156460
7.76388	146034
7.77015	131851
7.77640	141256
7.78265	148032
7.78892	145908
7.79517	142929
7.80142	140648
7.80767	138255
7.81393	145258
7.82018	179418
7.82643	237164
7.83270	289850
7.83895	275549
7.84520	221591
7.85147	171775
7.85772	162460
7.86397	164378
7.87023	163364
7.87648	174375
7.88273	200687
7.88900	221576
7.89525	213537
7.90150	192666
7.90777	183132
7.91402	172834
7.92027	167600
7.92653	154575
7.93278	139932
7.93903	122870
7.94530	133531
7.95155	166263
7.95780	224673
7.96407	246179
7.97032	230013
7.97657	219235
7.98283	254976
7.98908	382677
7.99533	661736
8.00160	1021064
8.00785	1401283
8.01410	1998174
8.02037	2550594
8.02662	2461463
8.03287	1752550
8.03912	1064269
8.04538	847872
8.05163	931775
8.05788	985829
8.06415	809657
8.07040	513114
8.07665	296592
8.08292	194436
8.08917	184948
8.09542	198805
8.10168	225144
8.10793	241627
8.11418	245743
8.12045	241923
8.12670	220182
8.13295	186183
8.13922	183429
8.14547	175955
8.15172	170791
8.15798	154465
8.16423	153777
8.17048	146096
8.17675	138905
8.18300	137786
8.18925	130711
8.19552	133704
8.20177	125545
8.20802	125771
8.21428	130275
8.22053	126763
8.22678	136216
8.23305	146455
8.23930	155416
8.24555	160009
8.25180	168604
8.25807	164158
8.26432	164517
8.27057	163897
8.27683	184738
8.28308	199137
8.28933	195661
8.29560	185773
8.30185	164813
8.30810	140785
8.31437	120354
8.32062	116320
8.32687	105746
8.33313	120117
8.33938	129550
8.34563	126835
8.35190	122342
8.35815	132056
8.36440	135049
8.37067	139960
8.37692	135074
8.38317	135254
8.38943	121000
8.39568	116191
8.40193	117151
8.40820	117239
8.41445	124953
8.42070	131627
8.42697	132076
8.43322	130716
8.43947	123840
8.44573	126172
8.45198	120896
8.45823	121450
8.46448	118939
8.47075	126722
8.47700	132695
8.48325	141813
8.48952	139379
8.49577	140161
8.50202	146677
8.50828	152815
8.51453	152336
8.52078	141063
8.52705	122559
8.53330	118372
8.53955	112201
8.54582	111460
8.55207	119109
8.55832	161471
8.56458	265060
8.57083	429279
8.57708	512538
8.58335	499402
8.58960	492097
8.59585	640727
8.60212	906070
8.60837	1611301
8.61462	4012108
8.62088	8921271
8.62713	1.45108E+07
8.63338	1.588976E+07
8.63965	1.130713E+07
8.64590	4726174
8.65215	1280685
8.65842	374659
8.66467	233738
8.67092	208861
8.67718	188800
8.68343	173111
8.68968	157409
8.69593	157848
8.70220	163467
8.70845	194051
8.71470	223764
8.72097	220350
8.72722	191662
8.73347	169881
8.73973	169650
8.74598	184359
8.75223	196298
8.75850	178710
8.76475	138716
8.77100	115492
8.77727	110601
8.78352	115818
8.78977	123584
8.79603	114236
8.80228	102850
8.80853	99259
8.81480	99745
8.82105	128278
8.82730	252074
8.83357	697130
8.83982	1875884
8.84607	4324320
8.85233	7502992
8.85858	1.032026E+07
8.86483	1.071983E+07
8.87110	9430198
8.87735	6470954
8.88360	2291878
8.88987	548096
8.89612	274117
8.90237	226427
8.90862	190871
8.91488	169093
8.92113	156591
8.92738	151883
8.93365	142676
8.93990	141405
8.94615	140366
8.95242	156897
8.95867	192357
8.96492	241308
8.97118	286244
8.97743	317123
8.98368	339726
8.98995	369061
8.99620	489416
9.00245	670050
9.00872	893850
9.01497	890648
9.02122	729280
9.02748	450934
9.03373	283343
9.03998	218061
9.04625	176802
9.05250	145415
9.05875	139844
9.06502	133113
9.07127	129915
9.07752	122057
9.08378	114699
9.09003	121949
9.09628	131846
9.10255	139294
9.10880	130078
9.11505	114234
9.12130	101002
9.12757	90411
9.13382	93295
9.14007	89275
9.14633	99116
9.15258	127831
9.15883	174134
9.16510	216002
9.17135	220665
9.17760	236284
9.18387	292785
9.19012	424488
9.19637	518223
9.20263	452268
9.20888	298881
9.21513	174562
9.22140	122659
9.22765	103773
9.23390	117119
9.24017	161704
9.24642	212872
9.25267	238283
9.25893	204475
9.26518	141642
9.27143	102977
9.27770	88433
9.28395	84688
9.29020	101009
9.29647	137108
9.30272	204669
9.30897	295893
9.31523	385288
9.32148	470065
9.32773	487753
9.33400	457681
9.34025	536501
9.34650	817973
9.35275	1049342
9.35902	1007580
9.36527	677428
9.37152	420122
9.37778	663638
9.38403	2257905
9.39028	5812400
9.39655	1.06447E+07
9.40280	1.318393E+07
9.40905	1.067617E+07
9.41532	5277473
9.42157	1612392
9.42782	736619
9.43408	1639356
9.44033	5356736
9.44658	1.36091E+07
9.45285	2.424955E+07
9.45910	3.487519E+07
9.46535	4.187535E+07
9.47162	4.474814E+07
9.47787	3.991812E+07
9.48412	1.823568E+07
9.49038	2880594
9.49663	445499
9.50288	185033
9.50915	130541
9.51540	123276
9.52165	134259
9.52792	138995
9.53417	145023
9.54042	140075
9.54668	135862
9.55293	126731
9.55918	118216
9.56543	126344
9.57170	141312
9.57795	150825
9.58420	150147
9.59047	147278
9.59672	146727
9.60297	160286
9.60923	195247
9.61548	223550
9.62173	207993
9.62800	159975
9.63425	119680
9.64050	101338
9.64677	98651
9.65302	99362
9.65927	99994
9.66553	99530
9.67178	106068
9.67803	249453
9.68430	1020725
9.69055	3493896
9.69680	8056060
9.70307	1.245657E+07
9.70932	1.287309E+07
9.71557	8132314
9.72183	3122681
9.72808	910042
9.73433	421158
9.74060	389682
9.74685	383502
9.75310	291960
9.75937	191722
9.76562	143299
9.77187	125930
9.77813	124536
9.78438	127530
9.79063	113493
9.79688	105075
9.80315	97625
9.80940	93538
9.81565	91409
9.82192	91778
9.82817	100046
9.83442	115135
9.84068	137371
9.84693	160884
9.85318	258627
9.85945	688479
9.86570	2114526
9.87195	4638114
9.87822	6833137
9.88447	6421114
9.89072	3834104
9.89698	1615068
9.90323	949825
9.90948	1167251
9.91575	1269237
9.92200	913397
9.92825	476269
9.93452	217255
9.94077	139615
9.94702	135239
9.95328	168033
9.95953	260376
9.96578	466080
9.97205	777581
9.97830	1084991
9.98455	1464034
9.99082	1948974
9.99707	2161463
10.00332	1746045
10.00957	1088379
10.01583	534078
10.02208	273316
10.02833	190101
10.03460	154673
10.04085	134046
10.04710	128953
10.05337	134890
10.05962	120643
10.06587	107374
10.07213	97264
10.07838	98883
10.08463	109506
10.09090	128437
10.09715	152386
10.10340	162779
10.10967	145693
10.11592	132821
10.12217	107702
10.12843	104080
10.13468	91717
10.14093	89214
10.14720	86459
10.15345	88569
10.15970	93676
10.16597	92684
10.17222	94964
10.17847	102848
10.18473	108911
10.19098	113875
10.19723	109623
10.20350	98842
10.20975	96353
10.21600	114821
10.22227	172751
10.22852	294978
10.23477	479160
10.24102	626170
10.24728	652155
10.25353	518433
10.25978	349667
10.26605	243054
10.27230	198334
10.27855	156373
10.28482	135350
10.29107	150916
10.29732	171062
10.30358	167363
10.30983	145993
10.31608	127020
10.32235	122664
10.32860	111626
10.33485	111082
10.34112	114087
10.34737	103643
10.35362	97325
10.35988	102776
10.36613	109826
10.37238	113204
10.37865	108065
10.38490	96552
10.39115	104964
10.39742	90645
10.40367	74143
10.40992	70247
10.41618	71088
10.42243	81094
10.42868	93973
10.43495	103323
10.44120	108741
10.44745	110017
10.45370	116658
10.45997	122683
10.46622	123359
10.47247	142993
10.47873	232489
10.48498	385595
10.49123	480566
10.49750	438491
10.50375	295584
10.51000	173767
10.51627	111145
10.52252	105582
10.52877	129764
10.53503	179502
10.54128	218420
10.54753	221650
10.55380	189121
10.56005	154399
10.56630	137406
10.57257	136151
10.57882	143049
10.58507	147980
10.59133	140229
10.59758	158905
10.60383	342756
10.61010	1119130
10.61635	3112043
10.62260	6109527
10.62887	8127526
10.63512	8006686
10.64137	4377388
10.64763	1454870
10.65388	492881
10.66013	206957
10.66640	165531
10.67265	166532
10.67890	175935
10.68515	189603
10.69142	174130
10.69767	149234
10.70392	126219
10.71018	115584
10.71643	121100
10.72268	136900
10.72895	147663
10.73520	164425
10.74145	160690
10.74772	153912
10.75397	141919
10.76022	137140
10.76648	146074
10.77273	165206
10.77898	163960
10.78525	167822
10.79150	156965
10.79775	151342
10.80402	148422
10.81027	153918
10.81652	179811
10.82278	197221
10.82903	181166
10.83528	153842
10.84155	129400
10.84780	123250
10.85405	135921
10.86032	148950
10.86657	158318
10.87282	160325
10.87908	166687
10.88533	164577
10.89158	159567
10.89783	170135
10.90410	183402
10.91035	185323
10.91660	179464
10.92287	172192
10.92912	182620
10.93537	180955
10.94163	162844
10.94788	134862
10.95413	132289
10.96040	177305
10.96665	465669
10.97290	1535039
10.97917	4516440
10.98542	9893009
10.99167	1.516952E+07
10.99793	1.778774E+07
11.00418	1.449749E+07
11.01043	7106580
11.01670	2078872
11.02295	516670
11.02920	256869
11.03547	255107
11.04172	275648
11.04797	279292
11.05423	302637
11.06048	334806
11.06673	345400
11.07300	297591
11.07925	218811
11.08550	153052
11.09177	142074
11.09802	152791
11.10427	157057
11.11052	166159
11.11678	173837
11.12303	183280
11.12928	184588
11.13555	187095
11.14180	187249
11.14805	198164
11.15432	243561
11.16057	351308
11.16682	541019
11.17308	644512
11.17933	605461
11.18558	402863
11.19185	248965
11.19810	187822
11.20435	209021
11.21062	294481
11.21687	398292
11.22312	440889
11.22938	393021
11.23563	287041
11.24188	227223
11.24815	222708
11.25440	242772
11.26065	248493
11.26692	236292
11.27317	227539
11.27942	243831
11.28568	255918
11.29193	241046
11.29818	207273
11.30445	174505
11.31070	177877
11.31695	246581
11.32322	419123
11.32947	642497
11.33572	711505
11.34197	566623
11.34823	349845
11.35448	194764
11.36073	124050
11.36700	113710
11.37325	108683
11.37950	106725
11.38577	105140
11.39202	111428
11.39827	120830
11.40453	127066
11.41078	130971
11.41703	124832
11.42330	116490
11.42955	119256
11.43580	123448
11.44207	140906
11.44832	155800
11.45457	176705
11.46083	166508
11.46708	149990
11.47333	132370
11.47960	126821
11.48585	128772
11.49210	130208
11.49837	124599
11.50462	124793
11.51087	125372
11.51713	120150
11.52338	129242
11.52963	125286
11.53590	136340
11.54215	144061
11.54840	153126
11.55465	154487
11.56092	132780
11.56717	123393
11.57342	115758
11.57968	116607
11.58593	116312
11.59218	121257
11.59845	124767
11.60470	116731
11.61095	112218
11.61722	109951
11.62347	117758
11.62972	116231
11.63598	121330
11.64223	116955
11.64848	135339
11.65475	153636
11.66100	177612
11.66725	175137
11.67352	154411
11.67977	127331
11.68602	105892
11.69228	101014
11.69853	113242
11.70478	129727
11.71105	157688
11.71730	180647
11.72355	196517
11.72982	183246
11.73607	172052
11.74232	163552
11.74858	157313
11.75483	146771
11.76108	148690
11.76733	162618
11.77360	165120
11.77985	160386
11.78610	152468
11.79237	153174
11.79862	154065
11.80487	155453
11.81113	145624
11.81738	146466
11.82363	157153
11.82990	230380
11.83615	364386
11.84240	483928
11.84867	505910
11.85492	377092
11.86117	236846
11.86743	167185
11.87368	139297
11.87993	146425
11.88620	191569
11.89245	265629
11.89870	330208
11.90497	342094
11.91122	309912
11.91747	240208
11.92373	186753
11.92998	163411
11.93623	187415
11.94250	340378
11.94875	782788
11.95500	1878042
11.96127	3468768
11.96752	4688441
11.97377	4792328
11.98003	3185989
11.98628	1440815
11.99253	552705
11.99878	260282
12.00505	189962
12.01130	183411
12.01755	193795
12.02382	215513
12.03007	238277
12.03632	297655
12.04258	415178
12.04883	637807
12.05508	882480
12.06135	1028088
12.06760	890050
12.07385	611973
12.08012	403310
12.08637	304689
12.09262	288972
12.09888	283028
12.10513	277934
12.11138	239477
12.11765	204653
12.12390	176816
12.13015	163195
12.13642	159199
12.14267	156983
12.14892	148094
12.15518	138398
12.16143	138659
12.16768	138583
12.17395	141776
12.18020	145997
12.18645	156575
12.19272	190740
12.19897	257543
12.20522	424836
12.21147	744667
12.21773	1159402
12.22398	1514020
12.23023	1534830
12.23650	1196914
12.24275	770354
12.24900	580724
12.25527	684265
12.26152	945979
12.26777	1148264
12.27403	1093933
12.28028	796866
12.28653	520469
12.29280	343098
12.29905	234445
12.30530	170144
12.31157	136166
12.31782	111734
12.32407	105038
12.33033	103172
12.33658	113769
12.34283	135625
12.34910	161895
12.35535	181054
12.36160	181232
12.36787	169199
12.37412	162079
12.38037	184034
12.38663	246305
12.39288	315998
12.39913	317930
12.40540	257631
12.41165	192286
12.41790	169656
12.42417	165538
12.43042	202220
12.43667	261173
12.44292	324561
12.44918	349622
12.45543	330769
12.46168	267711
12.46795	220605
12.47420	263346
12.48045	474271
12.48672	901747
12.49297	1516692
12.49922	1936244
12.50548	1670198
12.51173	1087832
12.51798	525505
12.52425	250981
12.53050	199874
12.53675	260242
12.54302	395794
12.54927	486923
12.55552	456391
12.56178	327585
12.56803	258024
12.57428	357238
12.58055	660531
12.58680	1141037
12.59305	1571538
12.59932	1642253
12.60557	1416180
12.61182	1429073
12.61808	1835844
12.62433	2625283
12.63058	3617467
12.63685	4754193
12.64310	6364109
12.64935	8863701
12.65560	1.194605E+07
12.66187	1.552235E+07
12.66812	1.90586E+07
12.67437	2.242659E+07
12.68063	2.245307E+07
12.68688	1.567049E+07
12.69313	5999713
12.69940	1294978
12.70565	384274
12.71190	258428
12.71817	249222
12.72442	270966
12.73067	307142
12.73693	388004
12.74318	442395
12.74943	430010
12.75570	385604
12.76195	343142
12.76820	310539
12.77447	281489
12.78072	243634
12.78697	216506
12.79323	198254
12.79948	194291
12.80573	186492
12.81200	181183
12.81825	173022
12.82450	173263
12.83077	183567
12.83702	189500
12.84327	179752
12.84953	177508
12.85578	171492
12.86203	172343
12.86830	185785
12.87455	209144
12.88080	310804
12.88705	609407
12.89332	1104520
12.89957	1518100
12.90582	1458776
12.91208	1026726
12.91833	615560
12.92458	363107
12.93085	241987
12.93710	177798
12.94335	144928
12.94962	125062
12.95587	114295
12.96212	108959
12.96838	100825
12.97463	97404
12.98088	99281
12.98715	105585
12.99340	109490
12.99965	126093
13.00592	143726
13.01217	165337
13.01842	193770
13.02468	236139
13.03093	322378
13.03718	429803
13.04345	447166
13.04970	363264
13.05595	239766
13.06222	154924
13.06847	126731
13.07472	136773
13.08098	181594
13.08723	234939
13.09348	257192
13.09973	261084
13.10600	267249
13.11225	271485
13.11850	263797
13.12477	219371
13.13102	195769
13.13727	193161
13.14353	205761
13.14978	198873
13.15603	187416
13.16230	174558
13.16855	159124
13.17480	141328
13.18107	117957
13.18732	104157
13.19357	98129
13.19983	98944
13.20608	102904
13.21233	102576
13.21860	112230
13.22485	123563
13.23110	140971
13.23737	166094
13.24362	178595
13.24987	172398
13.25613	157092
13.26238	159060
13.26863	156985
13.27490	152088
13.28115	134311
13.28740	127229
13.29367	127065
13.29992	132322
13.30617	140394
13.31243	139987
13.31868	130536
13.32493	118861
13.33118	108579
13.33745	108822
13.34370	117889
13.34995	137668
13.35622	145828
13.36247	139523
13.36872	124838
13.37498	112546
13.38123	102838
13.38748	91362
13.39375	84744
13.40000	86644
13.40625	90192
13.41252	97720
13.41877	105880
13.42502	119303
13.43128	141314
13.43753	171769
13.44378	191365
13.45005	189328
13.45630	169017
13.46255	133432
13.46882	114712
13.47507	109113
13.48132	110351
13.48758	113849
13.49383	119732
13.50008	122323
13.50635	117231
13.51260	119085
13.51885	126351
13.52512	131814
13.53137	142617
13.53762	172251
13.54387	254270
13.55013	429903
13.55638	659561
13.56263	751910
13.56890	628517
13.57515	379965
13.58140	211258
13.58767	143406
13.59392	123901
13.60017	128736
13.60643	134629
13.61268	142152
13.61893	151196
13.62520	156016
13.63145	151545
13.63770	139998
13.64397	124487
13.65022	109378
13.65647	102540
13.66273	97805
13.66898	101021
13.67523	107472
13.68150	118176
13.68775	129142
13.69400	128240
13.70027	125556
13.70652	122674
13.71277	114928
13.71903	116539
13.72528	111709
13.73153	109944
13.73780	111374
13.74405	117210
13.75030	158864
13.75655	278065
13.76282	492828
13.76907	722037
13.77532	766561
13.78158	572458
13.78783	331862
13.79408	198741
13.80035	164824
13.80660	191119
13.81285	293142
13.81912	565842
13.82537	1021550
13.83162	1441453
13.83788	1474012
13.84413	988689
13.85038	559579
13.85665	331856
13.86290	247787
13.86915	197854
13.87542	181822
13.88167	225409
13.88792	427335
13.89418	940405
13.90043	2079448
13.90668	3914841
13.91295	6156958
13.91920	7458962
13.92545	6094559
13.93172	3153906
13.93797	1121018
13.94422	345370
13.95048	155249
13.95673	123990
13.96298	120371
13.96925	109806
13.97550	104766
13.98175	110347
13.98800	122939
13.99427	134266
14.00052	156016
14.00677	231968
14.01303	286190
14.01928	312399
14.02553	262648
14.03180	198426
14.03805	159380
14.04430	146111
14.05057	151847
14.05682	158656
14.06307	185748
14.06933	230277
14.07558	262225
14.08183	252809
14.08810	228537
14.09435	180542
14.10060	148039
14.10687	138697
14.11312	147252
14.11937	156229
14.12563	160228
14.13188	160289
14.13813	150874
14.14440	129043
14.15065	118227
14.15690	133339
14.16317	139071
14.16942	139896
14.17567	134363
14.18193	128977
14.18818	130073
14.19443	146016
14.20068	168322
14.20695	211757
14.21320	312246
14.21945	506602
14.22572	773202
14.23197	989288
14.23822	954760
14.24448	647622
14.25073	355960
14.25698	202703
14.26325	156484
14.26950	153200
14.27575	164116
14.28202	176067
14.28827	198028
14.29452	227930
14.30078	251492
14.30703	254039
14.31328	243412
14.31955	255680
14.32580	319037
14.33205	353960
14.33832	335955
14.34457	286511
14.35082	240417
14.35708	222013
14.36333	203376
14.36958	184953
14.37585	188590
14.38210	188414
14.38835	203820
14.39462	226908
14.40087	273915
14.40712	301593
14.41337	311383
14.41963	286495
14.42588	272481
14.43213	255193
14.43840	236523
14.44465	224356
14.45090	248247
14.45717	339160
14.46342	468007
14.46967	644419
14.47593	920699
14.48218	1158301
14.48843	1142638
14.49470	871252
14.50095	572427
14.50720	339689
14.51347	234831
14.51972	209557
14.52597	217437
14.53223	218130
14.53848	219881
14.54473	200499
14.55100	193640
14.55725	195840
14.56350	216022
14.56977	225676
14.57602	239534
14.58227	237514
14.58853	203740
14.59478	185591
14.60103	187060
14.60730	189924
14.61355	206617
14.61980	209438
14.62607	198353
14.63232	195084
14.63857	222509
14.64482	301185
14.65108	373626
14.65733	402594
14.66358	352031
14.66985	295508
14.67610	257279
14.68235	238390
14.68862	251753
14.69487	301948
14.70112	382008
14.70738	446752
14.71363	474460
14.71988	559679
14.72615	805026
14.73240	1314978
14.73865	2028970
14.74492	2306285
14.75117	2139531
14.75742	1529948
14.76368	989525
14.76993	599056
14.77618	337317
14.78245	221883
14.78870	199394
14.79495	231907
14.80122	318056
14.80747	444347
14.81372	544045
14.81998	542171
14.82623	394659
14.83248	239789
14.83875	164241
14.84500	133976
14.85125	131886
14.85750	137623
14.86377	146447
14.87002	158108
14.87627	166566
14.88253	167673
14.88878	161778
14.89503	151018
14.90130	141520
14.90755	142686
14.91380	155870
14.92007	183789
14.92632	220992
14.93257	254075
14.93883	258582
14.94508	237528
14.95133	212164
14.95760	203886
14.96385	211073
14.97010	226350
14.97637	248477
14.98262	269980
14.98887	279261
14.99513	270293
15.00138	260968
15.00763	243195
15.01390	230177
15.02015	219464
15.02640	209695
15.03267	212381
15.03892	225172
15.04517	241722
15.05143	266014
15.05768	287680
15.06393	291221
15.07018	291600
15.07645	281433
15.08270	288138
15.08895	309322
15.09522	359245
15.10147	402641
15.10772	441175
15.11398	483705
15.12023	556862
15.12648	672095
15.13275	819716
15.13900	1004331
15.14525	1135886
15.15152	1269806
15.15777	1547180
15.16402	2514729
15.17028	4633033
15.17653	6904619
15.18278	7590491
15.18905	5414633
15.19530	2756563
15.20155	1108990
15.20782	435934
15.21407	251479
15.22032	194242
15.22658	176817
15.23283	171350
15.23908	170734
15.24535	175527
15.25160	185062
15.25785	191138
15.26412	191301
15.27037	189257
15.27662	188542
15.28288	188040
15.28913	191763
15.29538	193903
15.30163	192547
15.30790	187676
15.31415	189742
15.32040	203374
15.32667	227253
15.33292	256360
15.33917	256614
15.34543	230101
15.35168	210870
15.35793	231546
15.36420	275381
15.37045	300508
15.37670	285171
15.38297	237464
15.38922	202547
15.39547	185324
15.40173	174620
15.40798	165884
15.41423	173305
15.42050	178320
15.42675	193476
15.43300	228639
15.43927	253386
15.44552	295177
15.45177	359156
15.45803	417389
15.46428	404173
15.47053	332326
15.47680	260481
15.48305	214601
15.48930	182202
15.49557	189030
15.50182	219584
15.50807	276557
15.51432	382579
15.52058	600892
15.52683	1087726
15.53308	1983739
15.53935	3633951
15.54560	6306140
15.55185	9425128
15.55812	1.189386E+07
15.56437	1.132783E+07
15.57062	5947987
15.57688	1987906
15.58313	616641
15.58938	352198
15.59565	312373
15.60190	310342
15.60815	298128
15.61442	269448
15.62067	242643
15.62692	249389
15.63318	263739
15.63943	287323
15.64568	279107
15.65195	243201
15.65820	209019
15.66445	199248
15.67072	206254
15.67697	229212
15.68322	243722
15.68948	249955
15.69573	251331
15.70198	242494
15.70825	231349
15.71450	210549
15.72075	186811
15.72702	174939
15.73327	177300
15.73952	192466
15.74577	216654
15.75203	217845
15.75828	202794
15.76453	181874
15.77080	156263
15.77705	147100
15.78330	145777
15.78957	164483
15.79582	187888
15.80207	191621
15.80833	183375
15.81458	160643
15.82083	152787
15.82710	163576
15.83335	184650
15.83960	242632
15.84587	308526
15.85212	355570
15.85837	313088
15.86463	249353
15.87088	204401
15.87713	189955
15.88340	191763
15.88965	182839
15.89590	175690
15.90217	170488
15.90842	159505
15.91467	154215
15.92093	149284
15.92718	156072
15.93343	152544
15.93970	168629
15.94595	187600
15.95220	245390
15.95847	369197
15.96472	583521
15.97097	759220
15.97722	756243
15.98348	566173
15.98973	328496
15.99598	180069
16.00225	145593
16.00850	161061
16.01475	204011
16.02102	261384
16.02727	340734
16.03352	472091
16.03978	719101
16.04603	1165327
16.05228	1642314
16.05855	1789731
16.06480	1586645
16.07105	1221497
16.07732	1253000
16.08357	1649906
16.08982	1879921
16.09608	1690193
16.10233	1308249
16.10858	978715
16.11485	887003
16.12110	971675
16.12735	1031851
16.13362	981558
16.13987	739277
16.14612	490778
16.15238	340887
16.15863	299020
16.16488	308504
16.17115	324126
16.17740	311041
16.18365	310940
16.18990	339658
16.19617	439343
16.20242	498094
16.20867	437624
16.21493	309412
16.22118	202497
16.22743	155930
16.23370	145809
16.23995	147675
16.24620	160609
16.25247	184434
16.25872	219186
16.26497	238827
16.27123	230376
16.27748	197042
16.28373	160144
16.29000	141646
16.29625	130728
16.30250	124055
16.30877	126093
16.31502	131480
16.32127	135722
16.32753	148410
16.33378	158567
16.34003	172823
16.34630	179188
16.35255	188510
16.35880	187808
16.36507	173479
16.37132	164014
16.37757	155132
16.38383	146662
16.39008	141105
16.39633	148189
16.40258	152162
16.40885	157376
16.41510	161189
16.42135	174091
16.42762	208703
16.43387	288342
16.44012	498823
16.44638	883288
16.45263	1225147
16.45888	1241435
16.46515	962650
16.47140	682506
16.47765	557380
16.48392	449535
16.49017	360551
16.49642	313803
16.50268	305763
16.50893	340891
16.51518	425711
16.52145	553641
16.52770	662889
16.53395	665744
16.54022	626750
16.54647	552736
16.55272	502461
16.55898	462381
16.56523	384598
16.57148	330614
16.57775	296108
16.58400	291454
16.59025	283422
16.59652	282762
16.60277	284200
16.60902	286911
16.61528	309566
16.62153	326601
16.62778	361921
16.63403	365847
16.64030	393754
16.64655	472647
16.65280	550652
16.65907	569263
16.66532	488104
16.67157	376770
16.67783	326962
16.68408	302398
16.69033	296562
16.69660	289396
16.70285	265278
16.70910	232285
16.71537	217096
16.72162	217947
16.72787	238780
16.73413	262484
16.74038	330301
16.74663	495907
16.75290	832325
16.75915	1593658
16.76540	2995505
16.77167	6301598
16.77792	1.186762E+07
16.78417	1.942784E+07
16.79043	2.440228E+07
16.79668	2.3782E+07
16.80293	1.737206E+07
16.80920	1.046036E+07
16.81545	6928050
16.82170	5850845
16.82797	6793563
16.83422	8552919
16.84047	1.134734E+07
16.84672	1.411413E+07
16.85298	1.505864E+07
16.85923	1.420053E+07
16.86548	1.070151E+07
16.87175	8006361
16.87800	7604615
16.88425	9172315
16.89052	1.263311E+07
16.89677	1.57978E+07
16.90302	1.71844E+07
16.90928	1.578432E+07
16.91553	1.209715E+07
16.92178	7670461
16.92805	4964099
16.93430	3950113
16.94055	3774658
16.94682	3881908
16.95307	3869466
16.95932	3882015
16.96558	3914776
16.97183	3522026
16.97808	2627566
16.98435	1614864
16.99060	1029651
16.99685	802633
17.00312	967634
17.00937	1930067
17.01562	4558879
17.02188	9839335
17.02813	1.702447E+07
17.03438	2.54028E+07
17.04065	3.245277E+07
17.04690	3.863834E+07
17.05315	4.467757E+07
17.05940	4.938885E+07
17.06567	5.167388E+07
17.07192	5.052325E+07
17.07817	4.765421E+07
17.08443	4.437434E+07
17.09068	4.086287E+07
17.09693	3.673484E+07
17.10320	3.49781E+07
17.10945	3.48585E+07
17.11570	3.335384E+07
17.12197	3.583801E+07
17.12822	4.434442E+07
17.13447	1.300849E+07
17.14073	1.113758E+07
17.14698	1.123092E+07
17.15323	1.15532E+07
17.15950	1.582564E+07
17.16575	2.554309E+07
17.17200	3.791189E+07
17.17827	4.778578E+07
17.18452	5.157694E+07
17.19077	5.117694E+07
17.19703	4.384126E+07
17.20328	1.659582E+07
17.20953	4141492
17.21580	3343383
17.22205	4750550
17.22830	6176222
17.23457	8158202
17.24082	1.245187E+07
17.24707	2.132653E+07
17.25333	3.456407E+07
17.25958	4.683966E+07
17.26583	5.247445E+07
17.27210	5.29613E+07
17.27835	5.230515E+07
17.28460	4.337307E+07
17.29085	1.583918E+07
17.29712	8680499
17.30337	1.167068E+07
17.30962	1.480595E+07
17.31588	1.373636E+07
17.32213	8959464
17.32838	3946380
17.33465	1531042
17.34090	901873
17.34715	750391
17.35342	685630
17.35967	646334
17.36592	593961
17.37218	602113
17.37843	618285
17.38468	681607
17.39095	750715
17.39720	804577
17.40345	907383
17.40972	1236962
17.41597	1862653
17.42222	2348141
17.42848	2589221
17.43473	2276986
17.44098	1884294
17.44725	1973633
17.45350	2887801
17.45975	4062478
17.46602	4769407
17.47227	4049567
17.47852	2639823
17.48478	1675712
17.49103	1299243
17.49728	1192922
17.50353	1005934
17.50980	902491
17.51605	1017000
17.52230	1291775
17.52857	1417134
17.53482	1256987
17.54107	945095
17.54733	696926
17.55358	652388
17.55983	907585
17.56610	1719289
17.57235	3763495
17.57860	7844369
17.58487	1.233029E+07
17.59112	1.444167E+07
17.59737	1.086067E+07
17.60363	5701747
17.60988	2160779
17.61613	1041768
17.62240	1025366
17.62865	1225858
17.63490	1216305
17.64117	947785
17.64742	657810
17.65367	474538
17.65993	382585
17.66618	358458
17.67243	341105
17.67870	349405
17.68495	381448
17.69120	399379
17.69747	419593
17.70372	414353
17.70997	389827
17.71622	361932
17.72248	332334
17.72873	311208
17.73498	321517
17.74125	346294
17.74750	386718
17.75375	417393
17.76002	426397
17.76627	442206
17.77252	510375
17.77878	650038
17.78503	878016
17.79128	1237363
17.79755	1825519
17.80380	2536601
17.81005	2822195
17.81632	2582240
17.82257	2004313
17.82882	1374261
17.83508	1051180
17.84133	912206
17.84758	852962
17.85385	904174
17.86010	1407338
17.86635	3109560
17.87262	6940480
17.87887	1.196294E+07
17.88512	1.520638E+07
17.89138	1.358646E+07
17.89763	7279167
17.90388	2775486
17.91015	979286
17.91640	532512
17.92265	439497
17.92892	402951
17.93517	383575
17.94142	369760
17.94767	396390
17.95393	401591
17.96018	413017
17.96643	419927
17.97270	404289
17.97895	368956
17.98520	342199
17.99147	345711
17.99772	375569
18.00397	454045
18.01023	558137
18.01648	635386
18.02273	595401
18.02900	506763
18.03525	428381
18.04150	390452
18.04777	372323
18.05402	342470
18.06027	313751
18.06653	283004
18.07278	261636
18.07903	258534
18.08530	270126
18.09155	307624
18.09780	357467
18.10407	396524
18.11032	415931
18.11657	447596
18.12283	527097
18.12908	933297
18.13533	2033872
18.14160	4198891
18.14785	6812365
18.15410	7287446
18.16035	5318418
18.16662	2636937
18.17287	1000026
18.17912	467326
18.18538	343000
18.19163	297333
18.19788	287604
18.20415	289086
18.21040	326364
18.21665	388774
18.22292	442426
18.22917	436906
18.23542	376244
18.24168	325417
18.24793	291197
18.25418	285910
18.26045	302520
18.26670	320165
18.27295	378464
18.27922	475417
18.28547	655353
18.29172	1064903
18.29798	1846745
18.30423	2606658
18.31048	2622755
18.31675	2007807
18.32300	1134109
18.32925	548725
18.33552	310810
18.34177	227606
18.34802	200944
18.35428	197702
18.36053	194612
18.36678	200867
18.37305	208229
18.37930	230447
18.38555	277978
18.39180	346282
18.39807	371459
18.40432	342451
18.41057	289695
18.41683	250118
18.42308	221619
18.42933	214814
18.43560	206451
18.44185	199061
18.44810	190261
18.45437	193989
18.46062	200864
18.46687	196626
18.47313	203834
18.47938	205978
18.48563	198449
18.49190	197816
18.49815	191950
18.50440	191695
18.51067	192185
18.51692	197056
18.52317	197466
18.52943	202439
18.53568	215266
18.54193	216285
18.54820	230786
18.55445	236676
18.56070	240947
18.56697	235150
18.57322	220530
18.57947	209658
18.58573	191528
18.59198	187496
18.59823	183906
18.60448	188969
18.61075	188636
18.61700	191097
18.62325	193941
18.62952	201600
18.63577	214336
18.64202	232513
18.64828	247665
18.65453	254593
18.66078	240336
18.66705	219053
18.67330	208195
18.67955	193433
18.68582	201450
18.69207	194741
18.69832	190185
18.70458	196992
18.71083	223407
18.71708	256332
18.72335	277692
18.72960	258753
18.73585	221508
18.74212	192757
18.74837	180040
18.75462	179122
18.76088	177345
18.76713	175321
18.77338	175263
18.77965	176381
18.78590	182756
18.79215	182189
18.79842	177086
18.80467	181684
18.81092	185034
18.81718	191649
18.82343	193842
18.82968	194453
18.83593	189468
18.84220	194775
18.84845	235304
18.85470	364492
18.86097	818955
18.86722	2037669
18.87347	5133638
18.87973	1.008801E+07
18.88598	1.489209E+07
18.89223	1.735894E+07
18.89850	1.659627E+07
18.90475	1.372128E+07
18.91100	1.018342E+07
18.91727	6152404
18.92352	2838286
18.92977	1115109
18.93603	640991
18.94228	663878
18.94853	706837
18.95480	614168
18.96105	467110
18.96730	330279
18.97357	240493
18.97982	205133
18.98607	199453
18.99233	191312
18.99858	195231
19.00483	203921
19.01110	217466
19.01735	224866
19.02360	221057
19.02987	220293
19.03612	218314
19.04237	226921
19.04862	243736
19.05488	264187
19.06113	247111
19.06738	210305
19.07365	192261
19.07990	178632
19.08615	174947
19.09242	172149
19.09867	174088
19.10492	182851
19.11118	189373
19.11743	188294
19.12368	194984
19.12995	204417
19.13620	228091
19.14245	229737
19.14872	233252
19.15497	217288
19.16122	204203
19.16748	191430
19.17373	192385
19.17998	175396
19.18625	181788
19.19250	183349
19.19875	182709
19.20502	173192
19.21127	165481
19.21752	159774
19.22378	150118
19.23003	149778
19.23628	151322
19.24255	151387
19.24880	158523
19.25505	161945
19.26132	162039
19.26757	162097
19.27382	152552
19.28007	156593
19.28633	160643
19.29258	161619
19.29883	165876
19.30510	157124
19.31135	149809
19.31760	140441
19.32387	140144
19.33012	144208
19.33637	152482
19.34263	164531
19.34888	184819
19.35513	198104
19.36140	203670
19.36765	195980
19.37390	189231
19.38017	187189
19.38642	185454
19.39267	196516
19.39893	206893
19.40518	217840
19.41143	212938
19.41770	191352
19.42395	170885
19.43020	149804
19.43647	142415
19.44272	142202
19.44897	146640
19.45523	146132
19.46148	142334
19.46773	141014
19.47400	141062
19.48025	141295
19.48650	135569
19.49275	144524
19.49902	148838
19.50527	159431
19.51152	182576
19.51778	201189
19.52403	213404
19.53028	208715
19.53655	191938
19.54280	174929
19.54905	174481
19.55532	169997
19.56157	169988
19.56782	160673
19.57408	151496
19.58033	147986
19.58658	147206
19.59285	149871
19.59910	149724
19.60535	139278
19.61162	139192
19.61787	139199
19.62412	148302
19.63038	169438
19.63663	195403
19.64288	211575
19.64915	207177
19.65540	180255
19.66165	163622
19.66792	179277
19.67417	208003
19.68042	255718
19.68668	286026
19.69293	283392
19.69918	263669
19.70543	248440
19.71170	240341
19.71795	238058
19.72420	215574
19.73047	189802
19.73672	171793
19.74297	174723
19.74923	178585
19.75548	171831
19.76173	172178
19.76800	168102
19.77425	179134
19.78050	176732
19.78677	167615
19.79302	159440
19.79927	156731
19.80553	157221
19.81178	149896
19.81803	151818
19.82430	151554
19.83055	148183
19.83680	143127
19.84307	139204
19.84932	149097
19.85557	156408
19.86183	176629
19.86808	193753
19.87433	205612
19.88060	198637
19.88685	185526
19.89310	176328
19.89937	204552
19.90562	385129
19.91187	1151369
19.91813	3159875
19.92438	6535097
19.93063	1.039533E+07
19.93688	1.110383E+07
19.94315	7958215
19.94940	3740788
19.95565	1265342
19.96192	442316
19.96817	255234
19.97442	230296
19.98068	234452
19.98693	233630
19.99318	217525
19.99945	196458
20.00570	178805
20.01195	164286
20.01822	159844
20.02447	159200
20.03072	151496
20.03698	149959
20.04323	150132
20.04948	157148
20.05575	154148
20.06200	154005
20.06825	149620
20.07452	146832
20.08077	152709
20.08702	163917
20.09328	190538
20.09953	198229
20.10578	193813
20.11205	182724
20.11830	162910
20.12455	145265
20.13082	143046
20.13707	142163
20.14332	141776
20.14957	142929
20.15583	149048
20.16208	151549
20.16833	156195
20.17460	159795
20.18085	158598
20.18710	154016
20.19337	158606
20.19962	152210
20.20587	162164
20.21213	172501
20.21838	207513
20.22463	286815
20.23090	400791
20.23715	517048
20.24340	536918
20.24967	471874
20.25592	341310
20.26217	232679
20.26843	192322
20.27468	179401
20.28093	183895
20.28720	202647
20.29345	265724
20.29970	421905
20.30597	607412
20.31222	695413
20.31847	607629
20.32473	436016
20.33098	288639
20.33723	210996
20.34350	196047
20.34975	193574
20.35600	191926
20.36225	180330
20.36852	175476
20.37477	171929
20.38102	173899
20.38728	165946
20.39353	167800
20.39978	168058
20.40605	159714
20.41230	163851
20.41855	175236
20.42482	221002
20.43107	366944
20.43732	663702
20.44358	1017008
20.44983	1199469
20.45608	1075470
20.46235	734200
20.46860	449800
20.47485	367124
20.48112	392049
20.48737	461576
20.49362	462881
20.49988	410431
20.50613	316380
20.51238	242837
20.51865	215878
20.52490	209164
20.53115	199121
20.53742	199733
20.54367	202068
20.54992	216011
20.55618	245578
20.56243	249888
20.56868	242169
20.57495	247812
20.58120	304381
20.58745	471102
20.59370	668893
20.59997	762218
20.60622	629225
20.61247	419969
20.61873	283743
20.62498	216986
20.63123	209831
20.63750	213820
20.64375	212335
20.65000	207164
20.65627	196850
20.66252	183550
20.66877	185500
20.67503	183548
20.68128	180892
20.68753	175502
20.69380	173414
20.70005	170208
20.70630	194660
20.71257	248597
20.71882	383606
20.72507	544414
20.73133	653655
20.73758	597072
20.74383	462991
20.75010	337055
20.75635	307920
20.76260	388046
20.76887	530707
20.77512	663473
20.78137	659573
20.78763	513000
20.79388	358593
20.80013	258824
20.80638	223681
20.81265	204214
20.81890	192312
20.82515	185915
20.83142	181750
20.83767	181305
20.84392	174092
20.85018	177375
20.85643	177126
20.86268	186388
20.86895	184314
20.87520	178003
20.88145	174203
20.88772	168127
20.89397	164701
20.90022	166170
20.90648	163712
20.91273	166474
20.91898	167312
20.92525	188335
20.93150	246615
20.93775	397852
20.94402	669288
20.95027	951131
20.95652	1030174
20.96278	861812
20.96903	562391
20.97528	382466
20.98155	301133
20.98780	256898
20.99405	223177
21.00032	207383
21.00657	195260
21.01282	199465
21.01908	202692
21.02533	205624
21.03158	211615
21.03783	219832
21.04410	218866
21.05035	212602
21.05660	204890
21.06287	185327
21.06912	178162
21.07537	185742
21.08163	191564
21.08788	197721
21.09413	191942
21.10040	190440
21.10665	182609
21.11290	178127
21.11917	188609
21.12542	194660
21.13167	188959
21.13793	182359
21.14418	173256
21.15043	171384
21.15670	166564
21.16295	163807
21.16920	159017
21.17547	157075
21.18172	160656
21.18797	167822
21.19423	173876
21.20048	187111
21.20673	194627
21.21300	209444
21.21925	212020
21.22550	208147
21.23177	193402
21.23802	178347
21.24427	169666
21.25052	173198
21.25678	168366
21.26303	159335
21.26928	160121
21.27555	163656
21.28180	175787
21.28805	193605
21.29432	202729
21.30057	203996
21.30682	197060
21.31308	192569
21.31933	233030
21.32558	310300
21.33185	373662
21.33810	376458
21.34435	316927
21.35062	237905
21.35687	194281
21.36312	183076
21.36938	191092
21.37563	199208
21.38188	199961
21.38815	191827
21.39440	174419
21.40065	172415
21.40692	180832
21.41317	220117
21.41942	315894
21.42568	427094
21.43193	526302
21.43818	523603
21.44445	424880
21.45070	316426
21.45695	242441
21.46322	225174
21.46947	235065
21.47572	230689
21.48197	216056
21.48823	185339
21.49448	170126
21.50073	157012
21.50700	150825
21.51325	148879
21.51950	149752
21.52577	149935
21.53202	151654
21.53827	160425
21.54453	160432
21.55078	158039
21.55703	154739
21.56330	166792
21.56955	180126
21.57580	204428
21.58207	219776
21.58832	213822
21.59457	196075
21.60083	178742
21.60708	168524
21.61333	165094
21.61960	153715
21.62585	148498
21.63210	145914
21.63837	144302
21.64462	142167
21.65087	140156
21.65713	143554
21.66338	148658
21.66963	144331
21.67590	154122
21.68215	153527
21.68840	153992
21.69465	151302
21.70092	141590
21.70717	139763
21.71342	142616
21.71968	146305
21.72593	156454
21.73218	162306
21.73845	163115
21.74470	154606
21.75095	151134
21.75722	152290
21.76347	147340
21.76972	146234
21.77598	149690
21.78223	150085
21.78848	150014
21.79475	155717
21.80100	155229
21.80725	171020
21.81352	179762
21.81977	187866
21.82602	184749
21.83228	167495
21.83853	163810
21.84478	155493
21.85105	152957
21.85730	151974
21.86355	152703
21.86982	151243
21.87607	155251
21.88232	152229
21.88858	149712
21.89483	154620
21.90108	167195
21.90735	201940
21.91360	258995
21.91985	277467
21.92610	270704
21.93237	239966
21.93862	212490
21.94487	203165
21.95113	197194
21.95738	182220
21.96363	166550
21.96990	162890
21.97615	165600
21.98240	172734
21.98867	172616
21.99492	176857
22.00117	175150
22.00743	185043
22.01368	202512
22.01993	218360
22.02620	208852
22.03245	203378
22.03870	197426
22.04497	208374
22.05122	222989
22.05747	234651
22.06373	245549
22.06998	267127
22.07623	295904
22.08250	315149
22.08875	288800
22.09500	237906
22.10127	199113
22.10752	184561
22.11377	175473
22.12003	178105
22.12628	182155
22.13253	183605
22.13878	171887
22.14505	172457
22.15130	171544
22.15755	170321
22.16382	171686
22.17007	176006
22.17632	173959
22.18258	169242
22.18883	168136
22.19508	165402
22.20135	167715
22.20760	166851
22.21385	167771
22.22012	177789
22.22637	185892
22.23262	201584
22.23888	217618
22.24513	254147
22.25138	324849
22.25765	371956
22.26390	380360
22.27015	369407
22.27642	324575
22.28267	292623
22.28892	276924
22.29518	265346
22.30143	245868
22.30768	229588
22.31395	203426
22.32020	190339
22.32645	180183
22.33272	177028
22.33897	181132
22.34522	209277
22.35147	332858
22.35773	659270
22.36398	1380621
22.37023	2024196
22.37650	2327589
22.38275	1736785
22.38900	950586
22.39527	468521
22.40152	269237
22.40777	211453
22.41403	198087
22.42028	197906
22.42653	204789
22.43280	212565
22.43905	211391
22.44530	226907
22.45157	261559
22.45782	307319
22.46407	362243
22.47033	387230
22.47658	354893
22.48283	305182
22.48910	269603
22.49535	249522
22.50160	244253
22.50787	233008
22.51412	227633
22.52037	213361
22.52663	225824
22.53288	269159
22.53913	374812
22.54540	566303
22.55165	729588
22.55790	780176
22.56417	651694
22.57042	496163
22.57667	357438
22.58292	273770
22.58918	226393
22.59543	206006
22.60168	197061
22.60795	189978
22.61420	189006
22.62045	179149
22.62672	182504
22.63297	189359
22.63922	196611
22.64548	203675
22.65173	210951
22.65798	204807
22.66425	203786
22.67050	202607
22.67675	207375
22.68302	204996
22.68927	201077
22.69552	199330
22.70178	188817
22.70803	192457
22.71428	184469
22.72055	189143
22.72680	188471
22.73305	188626
22.73932	188497
22.74557	184858
22.75182	188030
22.75808	194434
22.76433	199337
22.77058	217625
22.77685	261207
22.78310	413252
22.78935	1078322
22.79560	3064429
22.80187	6728557
22.80812	1.00044E+07
22.81437	1.223982E+07
22.82063	1.033517E+07
22.82688	6343865
22.83313	2599007
22.83940	951391
22.84565	465205
22.85190	324586
22.85817	278629
22.86442	256619
22.87067	245824
22.87693	246815
22.88318	231997
22.88943	223113
22.89570	211812
22.90195	213362
22.90820	204050
22.91447	207194
22.92072	201946
22.92697	196493
22.93323	201789
22.93948	206546
22.94573	208256
22.95200	211048
22.95825	207619
22.96450	215649
22.97077	220653
22.97702	247631
22.98327	252875
22.98953	259547
22.99578	246472
23.00203	228664
23.00828	214994
23.01455	205306
23.02080	201318
23.02705	194693
23.03332	197430
23.03957	197056
23.04582	199447
23.05208	197873
23.05833	195323
23.06458	199410
23.07085	201253
23.07710	206595
23.08335	217514
23.08962	209954
23.09587	204953
23.10212	201362
23.10838	203822
23.11463	199450
23.12088	195748
23.12715	192441
23.13340	188143
23.13965	185991
23.14592	186424
23.15217	188210
23.15842	190159
23.16468	191816
23.17093	189774
23.17718	189239
23.18345	186943
23.18970	189444
23.19595	194787
23.20222	189845
23.20847	196915
23.21472	192835
23.22098	197472
23.22723	197773
23.23348	210269
23.23973	228527
23.24600	250463
23.25225	269555
23.25850	265454
23.26477	247025
23.27102	220465
23.27727	212246
23.28353	203806
23.28978	205325
23.29603	208389
23.30230	211711
23.30855	206284
23.31480	207764
23.32107	201476
23.32732	202317
23.33357	201645
23.33983	199203
23.34608	204512
23.35233	201058
23.35860	198650
23.36485	202852
23.37110	205104
23.37737	211909
23.38362	218191
23.38987	228024
23.39613	239590
23.40238	242157
23.40863	228358
23.41490	223086
23.42115	213759
23.42740	208448
23.43367	207308
23.43992	207848
23.44617	209622
23.45242	211190
23.45868	219824
23.46493	211784
23.47118	222058
23.47745	232283
23.48370	230773
23.48995	247904
23.49622	251303
23.50247	266710
23.50872	296747
23.51498	342071
23.52123	417432
23.52748	447991
23.53375	402850
23.54000	329780
23.54625	278668
23.55252	264624
23.55877	300127
23.56502	413744
23.57128	760638
23.57753	1444130
23.58378	2095844
23.59005	2495243
23.59630	2438742
23.60255	1780467
23.60882	1222167
23.61507	812776
23.62132	550698
23.62758	401837
23.63383	321376
23.64008	283018
23.64635	263820
23.65260	253710
23.65885	249884
23.66512	240717
23.67137	244103
23.67762	247368
23.68387	236182
23.69013	239879
23.69638	236618
23.70263	244610
23.70890	241406
23.71515	259228
23.72140	283639
23.72767	326131
23.73392	363682
23.74017	363965
23.74643	338029
23.75268	298276
23.75893	279567
23.76520	261084
23.77145	262050
23.77770	259610
23.78397	259024
23.79022	250752
23.79647	256521
23.80273	251193
23.80898	256400
23.81523	254298
23.82150	252428
23.82775	253999
23.83400	253704
23.84027	255662
23.84652	256180
23.85277	260471
23.85903	254654
23.86528	255540
23.87153	263157
23.87780	266798
23.88405	277740
23.89030	285554
23.89655	281943
23.90282	286392
23.90907	274298
23.91532	275630
23.92158	278411
23.92783	278865
23.93408	286526
23.94035	290722
23.94660	312876
23.95285	420300
23.95912	706424
23.96537	1223142
23.97162	1905667
23.97788	2287893
23.98413	1859384
23.99038	1297937
23.99665	922850
24.00290	720925
24.00915	584759
24.01542	486847
24.02167	396956
24.02792	347683
24.03418	330984
24.04043	315659
24.04668	315835
24.05295	330771
24.05920	348792
24.06545	369403
24.07172	394699
24.07797	417002
24.08422	414320
24.09048	395686
24.09673	374259
24.10298	350772
24.10925	354302
24.11550	364178
24.12175	369017
24.12800	369208
24.13427	349129
24.14052	343257
24.14677	335819
24.15303	333247
24.15928	341219
24.16553	367167
24.17180	412412
24.17805	503463
24.18430	625397
24.19057	848577
24.19682	1287428
24.20307	2592561
24.20933	5764379
24.21558	1.146998E+07
24.22183	1.973161E+07
24.22810	3.04437E+07
24.23435	3.79034E+07
24.24060	4.30334E+07
24.24687	4.491212E+07
24.25312	4.491799E+07
24.25937	4.429307E+07
24.26563	4.081062E+07
24.27188	1.880542E+07
24.27813	6808025
24.28440	4409634
24.29065	3745558
24.29690	3448458
24.30317	3249670
24.30942	3159692
24.31567	3070795
24.32193	2989786
24.32818	3044878
24.33443	3181808
24.34068	3211214
24.34695	3358524
24.35320	3474484
24.35945	3701281
24.36572	3750402
24.37197	3829282
24.37822	3763435
24.38448	3666944
24.39073	3610038
24.39698	3450474
24.40325	3299239
24.40950	3102309
24.41575	3022219
24.42202	2860486
24.42827	2764471
24.43452	2590656
24.44078	2450051
24.44703	2353867
24.45328	2215589
24.45955	2048548
24.46580	1977945
24.47205	1850773
24.47832	1782845
24.48457	1715683
24.49082	1650497
24.49708	1633632
24.50333	1558611
24.50958	1512253
24.51585	1476491
24.52210	1421262
24.52835	1343880
24.53462	1290552
24.54087	1212995
24.54712	1183186
24.55338	1137820
24.55963	1073813
24.56588	1038026
24.57213	1052141
24.57840	1104032
24.58465	1161393
24.59090	1126662
24.59717	1068444
24.60342	961069
24.60967	841671
24.61593	745281
24.62218	674341
24.62843	619577
24.63470	593081
24.64095	587268
24.64720	581994
24.65347	582871
24.65972	560922
24.66597	527389
24.67223	483681
24.67848	438753
24.68473	401710
24.69100	382781
24.69725	361407
24.70350	345656
24.70977	336426
24.71602	320507
24.72227	310782
24.72853	306575
24.73478	301130
24.74103	298725
24.74730	295653
24.75355	285717
24.75980	286937
24.76607	293856
24.77232	300045
24.77857	290181
24.78482	286398
24.79108	269569
24.79733	252936
24.80358	237096
24.80985	229823
24.81610	219433
24.82235	216633
24.82862	209530
24.83487	205920
24.84112	204013
24.84738	205734
24.85363	207569
24.85988	205796
24.86615	210963
24.87240	223786
24.87865	247449
24.88492	319081
24.89117	408574
24.89742	474028
24.90368	466679
24.90993	383587
24.91618	322343
24.92245	299162
24.92870	311679
24.93495	307016
24.94122	270459
24.94747	245491
24.95372	234583
24.95998	230759
24.96623	237719
24.97248	218179
24.97875	209445
24.98500	197241
24.99125	185925
24.99750	184759
25.00377	176322
25.01002	177018
25.01627	170390
25.02253	174735
25.02878	171372
25.03503	174869
25.04130	169369
25.04755	168395
25.05380	160237
25.06007	163784
25.06632	163770
25.07257	159319
25.07883	161329
25.08508	162236
25.09133	165268
25.09760	167240
25.10385	165025
25.11010	161717
25.11637	158413
25.12262	160649
25.12887	158850
25.13513	158048
25.14138	154034
25.14763	150479
25.15390	158044
25.16015	157369
25.16640	159247
25.17267	177909
25.17892	203926
25.18517	243946
25.19143	288918
25.19768	303809
25.20393	289419
25.21020	238340
25.21645	200401
25.22270	176999
25.22895	169084
25.23522	163207
25.24147	158179
25.24772	158840
25.25398	159165
25.26023	157053
25.26648	155889
25.27275	158617
25.27900	173431
25.28525	205225
25.29152	241396
25.29777	281161
25.30402	300639
25.31028	280246
25.31653	243087
25.32278	207413
25.32905	188623
25.33530	182296
25.34155	179483
25.34782	180724
25.35407	176834
25.36032	169290
25.36658	167925
25.37283	167401
25.37908	164396
25.38535	163740
25.39160	168031
25.39785	175986
25.40412	193296
25.41037	209990
25.41662	216961
25.42288	204953
25.42913	192457
25.43538	183860
25.44163	174028
25.44790	171793
25.45415	169556
25.46040	162700
25.46667	158460
25.47292	159819
25.47917	167254
25.48543	183951
25.49168	225171
25.49793	285593
25.50420	334950
25.51045	360077
25.51670	333960
25.52297	296629
25.52922	288439
25.53547	313713
25.54173	389447
25.54798	459107
25.55423	447497
25.56050	359742
25.56675	271684
25.57300	218418
25.57927	183661
25.58552	177074
25.59177	164893
25.59803	164619
25.60428	166694
25.61053	173003
25.61680	177409
25.62305	167219
25.62930	159849
25.63557	158629
25.64182	149722
25.64807	147222
25.65432	149947
25.66058	142764
25.66683	147486
25.67308	144710
25.67935	146802
25.68560	150142
25.69185	147938
25.69812	149473
25.70437	146843
25.71062	144445
25.71688	142822
25.72313	141756
25.72938	145771
25.73565	147405
25.74190	152671
25.74815	155800
25.75442	151804
25.76067	154544
25.76692	148289
25.77318	151157
25.77943	142698
25.78568	141801
25.79195	143889
25.79820	146412
25.80445	143987
25.81072	142373
25.81697	138772
25.82322	138702
25.82948	140284
25.83573	136626
25.84198	136482
25.84825	137589
25.85450	140070
25.86075	143665
25.86702	143879
25.87327	145538
25.87952	137849
25.88577	138949
25.89203	136875
25.89828	137174
25.90453	137558
25.91080	135028
25.91705	135116
25.92330	134400
25.92957	140490
25.93582	145749
25.94207	142645
25.94833	145782
25.95458	143989
25.96083	138117
25.96710	135750
25.97335	131246
25.97960	133965
25.98587	139038
25.99212	133197
25.99837	136595
26.00463	137050
26.01088	138169
26.01713	140011
26.02340	137406
26.02965	136503
26.03590	137558
26.04217	143652
26.04842	142265
26.05467	135428
26.06093	138740
26.06718	135802
26.07343	139828
26.07970	142299
26.08595	135492
26.09220	137078
26.09845	134645
26.10472	136349
26.11097	134256
26.11722	138829
26.12348	138520
26.12973	135531
26.13598	141446
26.14225	141515
26.14850	134430
26.15475	136609
26.16102	136703
26.16727	139127
26.17352	140069
26.17978	142203
26.18603	146633
26.19228	145288
26.19855	142823
26.20480	143072
26.21105	135502
26.21732	142688
26.22357	141396
26.22982	143765
26.23608	141151
26.24233	138921
26.24858	141291
26.25485	142627
26.26110	139896
26.26735	139990
26.27362	144033
26.27987	139034
26.28612	138365
26.29238	146400
26.29863	144580
26.30488	144028
26.31115	141015
26.31740	137432
26.32365	145881
26.32990	140900
26.33617	147682
26.34242	154225
26.34867	152569
26.35493	164552
26.36118	173697
26.36743	168181
26.37370	177125
26.37995	176894
26.38620	161556
26.39247	158807
26.39872	159905
26.40497	150932
26.41123	154396
26.41748	160123
26.42373	161972
26.43000	161309
26.43625	152207
26.44250	151572
26.44877	149270
26.45502	156316
26.46127	154749
26.46753	155702
26.47378	153947
26.48003	158610
26.48630	155737
26.49255	161676
26.49880	166628
26.50507	159902
26.51132	162329
26.51757	155682
26.52383	168896
26.53008	176416
26.53633	192929
26.54258	194341
26.54885	183819
26.55510	183209
26.56135	168089
26.56762	160542
26.57387	160078
26.58012	164003
26.58638	159807
26.59263	166859
26.59888	166309
26.60515	174195
26.61140	184629
26.61765	196258
26.62392	189692
26.63017	188642
26.63642	184918
26.64268	181558
26.64893	176612
26.65518	187479
26.66145	196767
26.66770	228113
26.67395	242639
26.68022	235886
26.68647	227780
26.69272	228542
26.69898	241774
26.70523	264422
26.71148	276010
26.71775	255938
26.72400	228309
26.73025	197916
26.73652	190878
26.74277	195224
26.74902	199839
26.75528	228744
26.76153	282406
26.76778	386668
26.77403	458593
26.78030	457167
26.78655	387185
26.79280	342069
26.79907	301408
26.80532	300158
26.81157	276377
26.81783	249679
26.82408	230541
26.83033	230704
26.83660	233501
26.84285	237925
26.84910	236359
26.85537	237100
26.86162	222390
26.86787	231005
26.87413	250185
26.88038	293420
26.88663	352608
26.89290	431406
26.89915	554108
26.90540	948475
26.91167	2217486
26.91792	4965162
26.92417	9416023
26.93043	1.616372E+07
26.93668	2.504717E+07
26.94293	3.018923E+07
26.94920	2.844175E+07
26.95545	1.834992E+07
26.96170	8126439
26.96797	3690148
26.97422	2071571
26.98047	1315668
26.98672	851755
26.99298	614713
26.99923	497542
27.00548	484330
27.01175	623410
27.01800	997105
27.02425	1587500
27.03052	1950992
27.03677	1888513
27.04302	1435776
27.04928	952190
27.05553	674470
27.06178	546057
27.06805	487427
27.07430	451403
27.08055	405616
27.08682	369868
27.09307	342355
27.09932	327881
27.10558	309733
27.11183	299234
27.11808	313080
27.12435	347964
27.13060	420838
27.13685	533633
27.14312	636905
27.14937	649684
27.15562	556483
27.16188	427838
27.16813	352382
27.17438	335742
27.18065	331976
27.18690	332655
27.19315	326664
27.19942	307144
27.20567	293541
27.21192	282905
27.21817	287898
27.22443	286660
27.23068	277740
27.23693	273714
27.24320	281197
27.24945	294343
27.25570	303676
27.26197	311535
27.26822	303735
27.27447	284824
27.28073	270189
27.28698	267055
27.29323	266433
27.29950	270744
27.30575	268097
27.31200	272290
27.31827	278164
27.32452	275276
27.33077	274860
27.33703	273604
27.34328	284062
27.34953	275889
27.35580	284545
27.36205	292666
27.36830	291156
27.37457	298343
27.38082	274790
27.38707	267214
27.39333	274024
27.39958	286036
27.40583	308210
27.41210	349716
27.41835	374415
27.42460	370471
27.43085	343339
27.43712	314078
27.44337	299465
27.44962	287696
27.45588	275077
27.46213	262528
27.46838	245710
27.47465	258488
27.48090	253297
27.48715	267144
27.49342	253016
27.49967	252055
27.50592	248336
27.51218	248959
27.51843	242811
27.52468	240016
27.53095	247375
27.53720	252913
27.54345	253249
27.54972	254876
27.55597	253075
27.56222	246448
27.56848	239896
27.57473	241393
27.58098	237899
27.58725	247625
27.59350	248425
27.59975	247179
27.60602	252710
27.61227	249855
27.61852	254321
27.62478	261906
27.63103	255374
27.63728	250074
27.64353	251598
27.64980	255447
27.65605	243931
27.66230	254321
27.66857	251467
27.67482	264049
27.68107	258567
27.68733	261892
27.69358	265645
27.69983	259979
27.70610	268466
27.71235	271034
27.71860	276730
27.72487	285331
27.73112	284053
27.73737	283224
27.74363	278324
27.74988	277822
27.75613	279617
27.76240	271936
27.76865	281654
27.77490	270823
27.78117	255829
27.78742	255840
27.79367	243340
27.79993	235995
27.80618	234369
27.81243	214664
27.81870	197535
27.82495	196446
27.83120	200360
27.83747	202767
27.84372	201966
27.84997	210895
27.85623	225414
27.86248	234229
27.86873	243216
27.87498	243421
27.88125	233387
27.88750	220053
27.89375	224211
27.90002	212636
27.90627	208187
27.91252	213122
27.91878	212842
27.92503	205707
27.93128	209335
27.93755	207927
27.94380	207402
27.95005	204000
27.95632	205867
27.96257	203118
27.96882	212414
27.97508	204288
27.98133	211853
27.98758	218595
27.99385	215686
28.00010	223591
28.00635	226462
28.01262	217057
28.01887	217054
28.02512	216633
28.03138	213294
28.03763	219041
28.04388	207912
28.05015	214141
28.05640	218018
28.06265	208013
28.06892	215179
28.07517	210843
28.08142	207551
28.08767	209924
28.09393	204910
28.10018	214883
28.10643	215125
28.11270	217668
28.11895	218998
28.12520	215281
28.13147	206613
28.13772	216079
28.14397	209131
28.15023	218252
28.15648	220652
28.16273	216029
28.16900	218083
28.17525	213055
28.18150	219888
28.18777	215625
28.19402	211134
28.20027	215757
28.20653	218420
28.21278	214458
28.21903	214675
28.22530	210275
28.23155	219425
28.23780	215913
28.24407	213909
28.25032	224150
28.25657	219042
28.26283	216890
28.26908	222244
28.27533	227154
28.28160	220200
28.28785	224663
28.29410	236462
28.30035	234695
28.30662	248726
28.31287	238684
28.31912	245662
28.32538	252325
28.33163	263576
28.33788	259423
28.34415	273708
28.35040	265839
28.35665	275089
28.36292	285794
28.36917	299131
28.37542	309126
28.38168	300792
28.38793	296169
28.39418	312871
28.40045	324829
28.40670	315450
28.41295	317023
28.41922	318484
28.42547	319153
28.43172	299973
28.43798	312499
28.44423	299419
28.45048	297685
28.45675	284407
28.46300	280583
28.46925	280530
28.47552	279140
28.48177	276466
28.48802	268279
28.49428	267101
28.50053	255137
28.50678	252440
28.51305	253074
28.51930	249516
28.52555	244291
28.53180	245817
28.53807	233895
28.54432	234842
28.55057	235430
28.55683	226299
28.56308	230994
28.56933	234247
28.57560	232635
28.58185	228553
28.58810	226256
28.59437	232191
28.60062	233454
28.60687	220208
28.61313	222058
28.61938	221706
28.62563	227557
28.63190	226423
28.63815	226415
28.64440	228043
28.65067	216995
28.65692	218011
28.66317	220979
28.66943	219108
28.67568	226137
28.68193	217305
28.68820	225370
28.69445	218984
28.70070	213270
28.70697	217890
28.71322	220572
28.71947	217719
28.72573	226565
28.73198	215996
28.73823	218614
28.74448	219392
28.75075	221752
28.75700	215039
28.76325	224183
28.76952	216399
28.77577	213215
28.78202	225513
28.78828	214413
28.79453	222834
28.80078	225304
28.80705	222292
28.81330	215160
28.81955	218322
28.82582	215957
28.83207	212873
28.83832	219700
28.84458	216691
28.85083	219682
28.85708	213698
28.86335	221764
28.86960	213066
28.87585	218172
28.88212	222399
28.88837	212952
28.89462	221319
28.90088	217741
28.90713	214709
28.91338	217824
28.91965	214831
28.92590	214501
28.93215	218550
28.93842	218241
28.94467	208620
28.95092	211900
28.95718	220685
28.96343	209816
28.96968	222677
28.97593	219121
28.98220	210907
28.98845	208092
28.99470	210203
29.00097	218395
29.00722	209353
29.01347	223853
29.01973	213902
29.02598	212205
29.03223	218127
29.03850	219002
29.04475	211008
29.05100	215461
29.05727	208363
29.06352	218095
29.06977	211354
29.07603	208939
29.08228	204349
29.08853	210583
29.09480	207478
29.10105	205552
29.10730	208332
29.11357	217386
29.11982	218201
29.12607	206637
29.13233	213173
29.13858	209757
29.14483	206830
29.15110	206241
29.15735	212959
29.16360	206139
29.16987	210142
29.17612	211014
29.18237	214668
29.18862	201794
29.19488	203072
29.20113	207258
29.20738	208317
29.21365	216643
29.21990	223186
29.22615	219539
29.23242	225731
29.23867	225107
29.24492	233211
29.25118	234407
29.25743	228772
29.26368	232908
29.26995	216718
29.27620	214403
29.28245	211245
29.28872	210565
29.29497	211755
29.30122	214314
29.30748	208017
29.31373	208362
29.31998	217087
29.32625	218067
29.33250	205691
29.33875	213698
29.34502	206479
29.35127	217501
29.35752	212724
29.36378	206589
29.37003	202927
29.37628	211689
29.38255	206693
29.38880	209138
29.39505	206426
29.40132	207030
29.40757	207610
29.41382	215080
29.42007	210038
29.42633	205840
29.43258	214123
29.43883	214163
29.44510	203921
29.45135	207521
29.45760	207460
29.46387	207941
29.47012	203020
29.47637	205092
29.48263	204439
29.48888	207553
29.49513	202619
29.50140	209243
29.50765	207577
29.51390	206800
29.52017	204952
29.52642	208252
29.53267	198955
29.53893	213166
29.54518	200283
29.55143	208289
29.55770	208202
29.56395	210571
29.57020	209499
29.57647	208804
29.58272	204322
29.58897	210265
29.59523	202749
29.60148	205600
29.60773	206539
29.61400	208456
29.62025	201549
29.62650	209207
29.63275	203182
29.63902	200636
29.64527	199501
29.65152	201775
29.65778	203650
29.66403	206174
29.67028	204149
29.67655	205655
29.68280	201932
29.68905	204863
29.69532	201372
29.70157	204325
29.70782	207195
29.71408	198138
29.72033	200699
29.72658	199285
29.73285	196616
29.73910	203251
29.74535	210182
29.75162	205732
29.75787	197108
29.76412	206628
29.77038	202497
29.77663	199022
29.78288	202526
29.78915	206935
29.79540	200082
29.80165	206584
29.80792	199987
29.81417	205259
29.82042	199970
29.82668	199334
29.83293	198591
29.83918	201316
29.84545	205147
29.85170	199074
29.85795	201544
29.86420	211829
29.87047	198743
29.87672	199410
29.88297	207693
29.88923	204308
29.89548	199934
29.90173	200410
29.90800	207633
29.91425	200589
29.92050	210067
29.92677	208065
29.93302	206752
29.93927	202988
29.94553	198511
29.95178	196748
29.95803	196058
29.96430	195258
29.97055	202664
29.97680	197395
29.98307	195030
29.98932	196356
29.99557	195991
30.00183	191369
30.00808	195813
30.01433	199577
30.02060	205004
30.02685	199417
30.03310	203189
30.03937	201311
30.04562	201500
30.05187	202865
30.05813	195332
30.06438	193583
30.07063	203140
30.07688	193647
30.08315	202486
30.08940	196127
30.09565	197070
30.10192	204704
30.10817	199979
30.11442	200297
30.12068	202483
30.12693	191763
30.13318	195852
30.13945	195951
30.14570	195884
30.15195	193767
30.15822	194345
30.16447	199149
30.17072	203496
30.17698	201617
30.18323	195641
30.18948	195413
30.19575	200258
30.20200	202083
30.20825	192671
30.21452	193866
30.22077	193611
30.22702	199958
30.23328	190336
30.23953	193845
30.24578	199766
30.25205	193350
30.25830	202842
30.26455	197923
30.27082	194556
30.27707	192346
30.28332	192958
30.28957	191501
30.29583	201297
30.30208	192567
30.30833	200585
30.31460	195579
30.32085	192885
30.32710	202077
30.33337	197084
30.33962	192817
30.34587	201917
30.35213	199665
30.35838	195787
30.36463	189650
30.37090	190050
30.37715	198854
30.38340	197825
30.38967	190373
30.39592	192123
30.40217	196528
30.40843	196720
30.41468	189537
30.42093	189747
30.42720	190377
30.43345	188813
30.43970	191657
30.44597	191087
30.45222	190217
30.45847	196740
30.46473	191354
30.47098	196443
30.47723	194632
30.48350	189075
30.48975	198484
30.49600	193415
30.50227	197028
30.50852	192366
30.51477	187930
30.52102	196000
30.52728	194957
30.53353	190206
30.53978	187529
30.54605	191342
30.55230	197738
30.55855	188055
30.56482	190830
30.57107	192269
30.57732	189807
30.58358	186967
30.58983	197531
30.59608	193689
30.60235	189351
30.60860	187733
30.61485	190084
30.62112	189966
30.62737	190586
30.63362	186483
30.63988	185844
30.64613	188095
30.65238	194011
30.65865	186982
30.66490	196342
30.67115	194059
30.67742	186472
30.68367	190206
30.68992	189743
30.69618	188717
30.70243	191585
30.70868	190844
30.71495	196441
30.72120	191860
30.72745	191899
30.73370	193623
30.73997	187128
30.74622	188905
30.75247	188327
30.75873	195133
30.76498	190658
30.77123	192441
30.77750	187496
30.78375	190382
30.79000	184189
30.79627	187541
30.80252	186769
30.80877	184445
30.81503	190242
30.82128	190259
30.82753	188241
30.83380	184385
30.84005	186526
30.84630	185827
30.85257	191191
30.85882	187175
30.86507	192395
30.87133	182362
30.87758	192536
30.88383	190198
30.89010	190471
30.89635	189738
30.90260	191826
30.90887	184898
30.91512	184022
30.92137	184820
30.92763	189423
30.93388	186997
30.94013	194986
30.94638	190552
30.95265	183169
30.95890	189183
30.96515	187896
30.97142	185597
30.97767	186209
30.98392	197945
30.99018	196216
30.99643	196616
31.00268	198413
31.00895	197281
31.01520	196658
31.02145	198280
31.02772	197517
31.03397	193410
31.04022	194255
31.04648	186272
31.05273	193232
31.05898	191249
31.06525	192630
31.07150	188810
31.07775	187177
31.08402	186388
31.09027	190337
31.09652	192755
31.10278	185873
31.10903	186134
31.11528	181487
31.12155	185979
31.12780	183751
31.13405	189537
31.14032	191180
31.14657	186087
31.15282	183573
31.15908	185336
31.16533	184015
31.17158	183284
31.17783	189752
31.18410	183268
31.19035	183358
31.19660	192960
31.20287	190852
31.20912	187789
31.21537	182710
31.22163	176047
31.22788	187022
31.23413	189150
31.24040	186587
31.24665	183725
31.25290	182703
31.25917	180077
31.26542	182003
31.27167	181176
31.27793	189269
31.28418	186158
31.29043	182224
31.29670	181931
31.30295	184047
31.30920	189179
31.31547	178191
31.32172	184369
31.32797	180378
31.33423	187828
31.34048	181596
31.34673	184188
31.35300	182793
31.35925	189260
31.36550	182797
31.37177	188996
31.37802	183152
31.38427	186658
31.39052	185290
31.39678	184890
31.40303	180190
31.40928	182377
31.41555	184106
31.42180	189889
31.42805	185045
31.43432	189900
31.44057	183410
31.44682	184431
31.45308	188540
31.45933	186750
31.46558	179349
31.47185	182673
31.47810	185995
31.48435	180693
31.49062	186325
31.49687	181016
31.50312	178865
31.50938	182773
31.51563	183416
31.52188	181210
31.52815	180480
31.53440	179629
31.54065	178813
31.54692	185960
31.55317	184445
31.55942	184606
31.56568	178580
31.57193	183656
31.57818	175010
31.58445	172786
31.59070	184142
31.59695	182967
31.60322	180189
31.60947	176179
31.61572	182625
31.62197	177629
31.62823	176099
31.63448	178692
31.64073	177892
31.64700	185619
31.65325	182488
31.65950	184291
31.66577	175930
31.67202	175414
31.67827	174844
31.68453	177183
31.69078	175119
31.69703	181098
31.70330	179692
31.70955	177923
31.71580	177565
31.72207	179784
31.72832	176364
31.73457	174560
31.74083	175388
31.74708	179041
31.75333	175808
31.75960	182886
31.76585	181377
31.77210	176012
31.77837	181178
31.78462	175459
31.79087	180307
31.79713	177043
31.80338	175211
31.80963	174230
31.81590	175783
31.82215	181125
31.82840	175920
31.83465	176334
31.84092	176488
31.84717	181035
31.85342	177875
31.85968	177078
31.86593	171212
31.87218	171388
31.87845	175093
31.88470	179219
31.89095	179068
31.89722	179333
31.90347	174627
31.90972	176454
31.91598	177562
31.92223	178816
31.92848	173017
31.93475	180389
31.94100	173456
31.94725	179980
31.95352	172455
31.95977	172975
31.96602	171777
31.97228	174644
31.97853	176727
31.98478	177977
31.99105	173051
31.99730	171105
32.00355	177898
32.00982	176279
32.01607	179600
32.02232	173499
32.02858	178578
32.03483	176628
32.04108	177043
32.04735	177680
32.05360	177154
32.05985	171580
32.06610	172688
32.07237	173492
32.07862	170988
32.08487	171763
32.09113	175480
32.09738	173963
32.10363	173453
32.10990	171787
32.11615	172663
32.12240	169163
32.12867	178184
32.13492	173673
32.14117	174950
32.14743	169866
32.15368	170610
32.15993	169766
32.16620	173202
32.17245	177455
32.17870	171423
32.18497	174853
32.19122	168152
32.19747	173646
32.20373	170848
32.20998	171811
32.21623	168212
32.22250	174175
32.22875	174376
32.23500	173582
32.24127	173988
32.24752	166940
32.25377	173023
32.26003	173524
32.26628	172077
32.27253	177764
32.27878	179407
32.28505	174634
32.29130	175239
32.29755	179514
32.30382	176785
32.31007	170808
32.31632	172058
32.32258	174445
32.32883	175862
32.33508	168214
32.34135	169647
32.34760	172812
32.35385	174717
32.36012	167782
32.36637	172140
32.37262	166032
32.37888	171401
32.38513	173116
32.39138	171313
32.39765	175964
32.40390	168846
32.41015	172778
32.41642	172250
32.42267	169672
32.42892	174604
32.43518	168754
32.44143	168701
32.44768	170649
32.45395	176309
32.46020	168848
32.46645	175720
32.47272	170287
32.47897	167439
32.48522	174835
32.49148	165661
32.49773	167131
32.50398	170028
32.51023	169829
32.51650	174626
32.52275	176079
32.52900	166465
32.53527	173419
32.54152	170199
32.54777	176571
32.55403	169933
32.56028	167771
32.56653	168220
32.57280	175673
32.57905	173662
32.58530	166878
32.59157	169437
32.59782	167024
32.60407	170264
32.61033	176683
32.61658	174211
32.62283	166066
32.62910	168756
32.63535	167448
32.64160	165668
32.64787	171004
32.65412	167208
32.66037	163154
32.66663	166905
32.67288	168651
32.67913	165260
32.68540	171617
32.69165	167887
32.69790	171247
32.70417	167265
32.71042	173432
32.71667	168947
32.72292	170857
32.72918	162882
32.73543	164947
32.74168	171367
32.74795	165700
32.75420	164364
32.76045	170760
32.76672	173432
32.77297	173517
32.77922	169563
32.78548	162079
32.79173	169756
32.79798	162498
32.80425	171271
32.81050	169006
32.81675	169597
32.82302	163049
32.82927	165090
32.83552	170177
32.84178	164996
32.84803	165718
32.85428	168520
32.86055	172799
32.86680	164365
32.87305	165159
32.87932	163295
32.88557	166588
32.89182	165063
32.89808	169540
32.90433	161358
32.91058	170070
32.91685	168080
32.92310	161105
32.92935	166679
32.93560	168759
32.94187	167734
32.94812	166861
32.95437	169130
32.96063	161906
32.96688	166209
32.97313	160243
32.97940	162216
32.98565	161202
32.99190	160999
32.99817	171411
33.00442	166415
33.01067	163901
33.01693	168984
33.02318	165554
33.02943	158962
33.03570	167971
33.04195	161867
33.04820	161458
33.05447	167383
33.06072	167195
33.06697	171538
33.07323	161867
33.07948	162962
33.08573	160768
33.09200	165676
33.09825	164668
33.10450	159788
33.11077	163502
33.11702	165091
33.12327	164344
33.12953	170682
33.13578	163381
33.14203	164942
33.14830	170141
33.15455	178191
33.16080	173436
33.16705	172932
33.17332	180144
33.17957	178707
33.18582	181544
33.19208	180307
33.19833	173572
33.20458	170794
33.21085	171942
33.21710	166293
33.22335	168233
33.22962	169571
33.23587	167697
33.24212	166291
33.24838	166411
33.25463	163036
33.26088	169689
33.26715	161824
33.27340	168710
33.27965	161119
33.28592	161668
33.29217	165322
33.29842	163665
33.30468	161954
33.31093	161068
33.31718	164841
33.32345	161102
33.32970	166933
33.33595	160320
33.34222	158440
33.34847	161250
33.35472	164038
33.36098	168690
33.36723	161991
33.37348	170184
33.37973	163860
33.38600	161993
33.39225	166258
33.39850	168799
33.40477	167109
33.41102	162038
33.41727	161469
33.42353	158148
33.42978	158189
33.43603	159014
33.44230	158703
33.44855	156712
33.45480	158693
33.46107	157829
33.46732	157164
33.47357	159827
33.47983	158959
33.48608	158323
33.49233	159823
33.49860	157702
33.50485	156708
33.51110	162690
33.51737	159770
33.52362	159714
33.52987	160813
33.53613	159567
33.54238	158399
33.54863	162875
33.55490	156623
33.56115	158154
33.56740	161660
33.57367	164510
33.57992	160157
33.58617	162016
33.59242	154209
33.59868	156485
33.60493	160343
33.61118	162692
33.61745	159420
33.62370	160287
33.62995	157482
33.63622	157455
33.64247	160143
33.64872	162887
33.65498	160116
33.66123	157786
33.66748	155929
33.67375	156868
33.68000	158835
33.68625	163197
33.69252	160125
33.69877	155554
33.70502	162735
33.71128	158968
33.71753	156249
33.72378	161767
33.73005	162841
33.73630	157647
33.74255	156825
33.74882	164003
33.75507	155092
33.76132	159205
33.76758	157163
33.77383	155120
33.78008	158523
33.78635	157991
33.79260	154536
33.79885	161864
33.80512	155171
33.81137	153940
33.81762	155415
33.82387	156214
33.83013	153826
33.83638	159519
33.84263	156550
33.84890	156847
33.85515	152088
33.86140	156570
33.86767	161152
33.87392	152898
33.88017	158650
33.88643	157613
33.89268	155184
33.89893	157710
33.90520	160791
33.91145	153026
33.91770	161272
33.92397	154957
33.93022	154261
33.93647	155703
33.94273	154058
33.94898	150305
33.95523	156778
33.96150	153620
33.96775	158500
33.97400	155885
33.98027	154752
33.98652	159656
33.99277	152352
33.99903	154800
34.00528	155239
34.01153	151484
34.01780	157087
34.02405	157698
34.03030	158900
34.03655	159671
34.04282	159250
34.04907	155676
34.05532	153907
34.06158	154406
34.06783	149463
34.07408	152562
34.08035	151502
34.08660	156575
34.09285	159897
34.09912	155821
34.10537	154643
34.11162	152200
34.11788	155021
34.12413	151213
34.13038	156506
34.13665	150645
34.14290	153619
34.14915	160811
34.15542	156035
34.16167	158389
34.16792	153060
34.17418	157288
34.18043	155026
34.18668	152083
34.19295	150661
34.19920	155921
34.20545	155372
34.21172	156969
34.21797	151830
34.22422	152966
34.23048	155442
34.23673	152990
34.24298	154054
34.24923	154725
34.25550	150015
34.26175	148268
34.26800	153216
34.27427	154545
34.28052	160216
34.28677	155170
34.29303	151432
34.29928	156444
34.30553	152173
34.31180	148990
34.31805	153827
34.32430	155170
34.33057	149366
34.33682	155498
34.34307	159205
34.34933	149787
34.35558	150066
34.36183	160061
34.36810	152595
34.37435	152704
34.38060	155418
34.38687	150303
34.39312	155243
34.39937	153479
34.40563	159082
34.41188	156511
34.41813	151304
34.42440	156080
34.43065	150415
34.43690	150666
34.44317	152932
34.44942	148572
34.45567	148085
34.46193	157493
34.46818	158912
34.47443	154110
34.48068	150439
34.48695	156306
34.49320	150289
34.49945	156230
34.50572	152217
34.51197	155755
34.51822	148586
34.52448	156990
34.53073	150409
34.53698	150496
34.54325	150892
34.54950	148292
34.55575	152932
34.56202	149740
34.56827	148796
34.57452	148973
34.58078	150676
34.58703	154503
34.59328	148541
34.59955	150036
34.60580	151701
34.61205	153834
34.61832	153059
34.62457	149357
34.63082	148773
34.63708	154289
34.64333	150588
34.64958	157926
34.65585	146429
34.66210	145402
34.66835	148205
34.67462	150781
34.68087	145907
34.68712	151054
34.69337	146466
34.69963	147625
34.70588	148061
34.71213	144405
34.71840	148613
34.72465	145780
34.73090	146687
34.73717	150698
34.74342	148488
34.74967	147959
34.75593	149558
34.76218	153851
34.76843	152594
34.77470	150235
34.78095	149082
34.78720	149249
34.79347	150033
34.79972	152957
34.80597	145378
34.81223	147018
34.81848	150751
34.82473	146129
34.83100	145959
34.83725	153960
34.84350	152430
34.84977	141011
34.85602	145706
34.86227	144913
34.86853	149195
34.87478	144857
34.88103	150770
34.88730	148417
34.89355	146092
34.89980	147698
34.90607	147895
34.91232	150034
34.91857	147141
34.92482	146280
34.93108	146166
34.93733	151473
34.94358	144895
34.94985	151275
34.95610	146072
34.96235	150379
34.96862	151808
34.97487	146232
34.98112	150529
34.98738	148189
34.99363	144717
34.99988	148877
35.00615	148111
35.01240	142109
35.01865	148760
35.02492	149571
35.03117	144518
35.03742	146630
35.04368	148845
35.04993	150054
35.05618	143286
35.06245	148425
35.06870	150390
35.07495	143594
35.08122	143982
35.08747	148106
35.09372	143560
35.09998	143235
35.10623	141145
35.11248	149984
35.11875	144772
35.12500	148905
35.13125	144389
35.13750	143166
35.14377	140097
35.15002	143881
35.15627	144482
35.16253	149105
35.16878	146072
35.17503	141711
35.18130	145470
35.18755	146712
35.19380	146058
35.20007	148159
35.20632	143476
35.21257	146723
35.21883	142652
35.22508	142842
35.23133	143240
35.23760	151256
35.24385	144750
35.25010	150981
35.25637	144298
35.26262	142777
35.26887	144556
35.27513	147039
35.28138	140101
35.28763	144634
35.29390	144342
35.30015	140987
35.30640	142854
35.31267	143103
35.31892	146804
35.32517	141524
35.33143	143435
35.33768	142463
35.34393	151476
35.35020	148092
35.35645	145991
35.36270	141893
35.36895	149512
35.37522	141003
35.38147	145421
35.38772	140382
35.39398	148261
35.40023	145102
35.40648	141461
35.41275	141796
35.41900	147026
35.42525	142981
35.43152	140237
35.43777	146037
35.44402	142482
35.45028	141713
35.45653	142462
35.46278	142455
35.46905	144423
35.47530	143906
35.48155	146786
35.48782	140480
35.49407	148222
35.50032	142872
35.50658	142268
35.51283	142421
35.51908	147336
35.52535	141982
35.53160	144246
35.53785	139681
35.54412	141167
35.55037	144762
35.55662	145393
35.56288	145674
35.56913	147483
35.57538	141526
35.58163	148467
35.58790	142424
35.59415	147179
35.60040	142183
35.60667	145002
35.61292	148212
35.61917	141509
35.62543	144237
35.63168	145884
35.63793	143015
35.64420	144927
35.65045	141370
35.65670	142449
35.66297	144117
35.66922	139774
35.67547	138197
35.68173	143989
35.68798	139246
35.69423	147135
35.70050	141604
35.70675	139660
35.71300	144209
35.71927	146088
35.72552	142274
35.73177	140824
35.73803	140808
35.74428	144647
35.75053	141299
35.75680	141716
35.76305	141952
35.76930	140710
35.77557	136388
35.78182	140460
35.78807	141941
35.79433	137968
35.80058	143476
35.80683	144786
35.81308	137920
35.81935	145083
35.82560	137195
35.83185	139050
35.83812	135919
35.84437	138799
35.85062	141338
35.85688	143223
35.86313	138989
35.86938	139422
35.87565	143213
35.88190	142917
35.88815	139022
35.89442	138683
35.90067	143521
35.90692	138573
35.91318	141018
35.91943	139241
35.92568	138029
35.93195	138301
35.93820	140741
35.94445	138182
35.95072	140988
35.95697	141434
35.96322	138931
35.96948	139776
35.97573	138023
35.98198	137360
35.98825	142103
35.99450	139005
36.00075	140800
36.00702	142853
36.01327	137704
36.01952	137899
36.02577	139801
36.03203	144754
36.03828	140465
36.04453	140900
36.05080	143305
36.05705	140075
36.06330	144371
36.06957	137649
36.07582	138751
36.08207	140983
36.08833	135222
36.09458	137193
36.10083	137413
36.10710	136627
36.11335	139723
36.11960	141242
36.12587	143776
36.13212	145386
36.13837	142481
36.14463	136923
36.15088	138276
36.15713	136443
36.16340	137643
36.16965	137149
36.17590	136000
36.18217	137173
36.18842	136703
36.19467	138820
36.20093	136197
36.20718	135334
36.21343	132596
36.21970	138573
36.22595	139069
36.23220	141686
36.23845	149338
36.24472	146488
36.25097	154121
36.25722	162328
36.26348	169397
36.26973	167261
36.27598	185800
36.28225	197848
36.28850	204277
36.29475	217386
36.30102	227555
36.30727	229831
36.31352	237519
36.31978	249600
36.32603	251233
36.33228	251448
36.33855	243580
36.34480	246676
36.35105	236894
36.35732	232757
36.36357	221945
36.36982	220026
36.37608	207088
36.38233	198446
36.38858	186464
36.39485	178433
36.40110	174427
36.40735	171257
36.41362	160044
36.41987	160130
36.42612	155414
36.43238	154987
36.43863	153190
36.44488	151050
36.45115	147092
36.45740	147087
36.46365	149145
36.46990	147304
36.47617	145169
36.48242	144820
36.48867	144233
36.49493	142609
36.50118	147203
36.50743	146691
36.51370	143615
36.51995	145067
36.52620	143693
36.53247	138946
36.53872	142462
36.54497	142377
36.55123	147449
36.55748	142725
36.56373	144049
36.57000	138642
36.57625	143687
36.58250	141747
36.58877	141978
36.59502	145117
36.60127	137874
36.60753	140230
36.61378	141920
36.62003	142450
36.62630	141817
36.63255	140821
36.63880	138820
36.64507	138846
36.65132	137538
36.65757	139614
36.66383	139453
36.67008	139189
36.67633	137325
36.68258	139770
36.68885	141250
36.69510	139405
36.70135	136140
36.70762	141795
36.71387	136736
36.72012	138389
36.72638	136628
36.73263	141090
36.73888	141330
36.74515	138748
36.75140	139275
36.75765	136234
36.76392	132710
36.77017	134898
36.77642	138528
36.78268	140899
36.78893	135221
36.79518	135921
36.80145	135322
36.80770	141772
36.81395	133316
36.82022	133535
36.82647	136625
36.83272	133460
36.83898	140972
36.84523	138933
36.85148	135293
36.85775	135341
36.86400	136952
36.87025	140876
36.87652	134573
36.88277	133049
36.88902	135274
36.89527	133629
36.90153	135987
36.90778	133033
36.91403	134844
36.92030	132989
36.92655	135617
36.93280	134239
36.93907	134096
36.94532	133861
36.95157	139402
36.95783	135836
36.96408	134819
36.97033	138928
36.97660	136835
36.98285	135933
36.98910	134125
36.99537	138571
37.00162	136409
37.00787	138411
37.01413	135412
37.02038	136102
37.02663	135976
37.03290	132693
37.03915	132392
37.04540	133307
37.05167	135365
37.05792	136649
37.06417	134253
37.07043	131876
37.07668	132607
37.08293	133949
37.08920	133156
37.09545	134894
37.10170	138682
37.10797	132216
37.11422	134738
37.12047	132761
37.12672	131021
37.13298	131459
37.13923	133434
37.14548	139388
37.15175	133313
37.15800	136453
37.16425	132812
37.17052	133649
37.17677	134785
37.18302	131397
37.18928	130918
37.19553	132339
37.20178	131991
37.20805	133614
37.21430	132760
37.22055	131155
37.22682	133687
37.23307	138664
37.23932	135501
37.24558	131708
37.25183	134103
37.25808	132789
37.26435	131514
37.27060	132519
37.27685	136563
37.28312	130535
37.28937	128324
37.29562	136079
37.30188	135082
37.30813	132061
37.31438	130244
37.32065	131329
37.32690	134631
37.33315	135159
37.33942	135618
37.34567	136708
37.35192	133127
37.35817	131006
37.36443	132912
37.37068	134864
37.37693	133216
37.38320	132203
37.38945	129149
37.39570	131869
37.40197	131821
37.40822	132844
37.41447	130104
37.42073	135544
37.42698	132304
37.43323	130556
37.43950	132549
37.44575	131985
37.45200	132171
37.45827	133598
37.46452	129849
37.47077	130930
37.47703	129213
37.48328	128467
37.48953	129514
