D:\MassHunter\GCMS\1\data\metastasis_lineages_3replicates_3runs_10302020\M_plate1_run2_10302020.D Sat Oct 31 02:20:59 2020
Start of data points
5.99355,163033
5.99980,169822
6.00607,179510
6.01232,184331
6.01857,176930
6.02483,171559
6.03108,171980
6.03733,177613
6.04360,195069
6.04985,192200
6.05610,173110
6.06237,163323
6.06862,159714
6.07487,159788
6.08113,165792
6.08738,163630
6.09363,175824
6.09990,323271
6.10615,692900
6.11240,1037230
6.11867,939833
6.12492,563798
6.13117,299446
6.13742,207438
6.14368,215976
6.14993,267111
6.15618,348388
6.16245,534291
6.16870,850023
6.17495,1004594
6.18122,811123
6.18747,474562
6.19372,269535
6.19998,202438
6.20623,184862
6.21248,158439
6.21875,146429
6.22500,132820
6.23125,133249
6.23752,146422
6.24377,167739
6.25002,163830
6.25628,155021
6.26253,149194
6.26878,160484
6.27505,162567
6.28130,173675
6.28755,164902
6.29382,156434
6.30007,150300
6.30632,156946
6.31258,160368
6.31883,202131
6.32508,268431
6.33135,340183
6.33760,363408
6.34385,314865
6.35012,248937
6.35637,208713
6.36262,179291
6.36887,177611
6.37513,180485
6.38138,193075
6.38763,202598
6.39390,278089
6.40015,447600
6.40640,592850
6.41267,556014
6.41892,481586
6.42517,522263
6.43143,758443
6.43768,1005311
6.44393,928096
6.45020,644259
6.45645,583004
6.46270,1298677
6.46897,4023171
6.47522,1.082388E+07
6.48147,2.100914E+07
6.48773,2.898496E+07
6.49398,2.808798E+07
6.50023,1.539342E+07
6.50650,3704379
6.51275,645509
6.51900,315303
6.52527,301739
6.53152,324464
6.53777,388467
6.54403,692428
6.55028,1540387
6.55653,2694279
6.56280,2950288
6.56905,1996812
6.57530,940521
6.58155,461283
6.58782,346088
6.59407,314882
6.60032,280711
6.60658,270296
6.61283,259807
6.61908,245954
6.62535,243275
6.63160,249514
6.63785,265353
6.64412,272916
6.65037,287459
6.65662,339283
6.66288,426921
6.66913,455536
6.67538,389567
6.68165,312379
6.68790,283422
6.69415,267951
6.70042,272625
6.70667,266737
6.71292,290914
6.71918,317259
6.72543,328430
6.73168,342517
6.73795,348474
6.74420,348484
6.75045,350270
6.75672,354206
6.76297,354431
6.76922,357174
6.77548,360718
6.78173,361445
6.78798,389735
6.79423,403359
6.80050,415994
6.80675,430173
6.81300,440626
6.81927,438519
6.82552,451774
6.83177,477453
6.83803,516031
6.84428,543925
6.85053,531979
6.85680,501358
6.86305,486169
6.86930,543583
6.87557,658598
6.88182,734618
6.88807,716887
6.89433,599443
6.90058,525424
6.90683,481281
6.91310,454545
6.91935,428297
6.92560,402984
6.93187,404515
6.93812,408931
6.94437,406841
6.95063,399948
6.95688,374869
6.96313,363085
6.96940,363571
6.97565,360064
6.98190,364733
6.98817,352337
6.99442,341821
7.00067,316796
7.00693,313547
7.01318,315777
7.01943,358685
7.02568,436017
7.03195,748936
7.03820,1466087
7.04445,2259480
7.05072,2300779
7.05697,1532339
7.06322,718483
7.06948,351860
7.07573,236060
7.08198,191902
7.08825,176189
7.09450,161033
7.10075,160720
7.10702,162462
7.11327,152375
7.11952,146772
7.12578,151500
7.13203,169820
7.13828,170748
7.14455,154216
7.15080,140180
7.15705,140708
7.16332,135702
7.16957,140120
7.17582,144073
7.18208,144124
7.18833,138478
7.19458,125940
7.20085,126194
7.20710,125345
7.21335,125537
7.21962,129449
7.22587,136789
7.23212,145773
7.23837,168006
7.24463,203266
7.25088,304330
7.25713,468350
7.26340,595764
7.26965,569467
7.27590,425154
7.28217,268177
7.28842,194301
7.29467,166010
7.30093,154929
7.30718,150890
7.31343,140588
7.31970,126746
7.32595,124951
7.33220,122411
7.33847,120717
7.34472,119045
7.35097,116325
7.35723,118121
7.36348,110896
7.36973,119584
7.37600,135726
7.38225,151977
7.38850,161916
7.39477,162647
7.40102,147266
7.40727,159853
7.41353,229140
7.41978,337429
7.42603,428512
7.43230,430648
7.43855,344574
7.44480,246183
7.45105,174637
7.45732,181290
7.46357,195968
7.46982,207099
7.47608,201565
7.48233,200191
7.48858,197831
7.49485,181489
7.50110,165761
7.50735,145978
7.51362,131160
7.51987,120533
7.52612,114046
7.53238,116415
7.53863,137072
7.54488,272530
7.55115,1032991
7.55740,3784996
7.56365,1.004996E+07
7.56992,1.882272E+07
7.57617,2.676E+07
7.58242,2.97875E+07
7.58868,2.424373E+07
7.59493,1.028671E+07
7.60118,3105245
7.60745,1921358
7.61370,1663770
7.61995,1259216
7.62622,892562
7.63247,656771
7.63872,451996
7.64498,298746
7.65123,227680
7.65748,209235
7.66375,217936
7.67000,274832
7.67625,365210
7.68250,380569
7.68877,314012
7.69502,230051
7.70127,185133
7.70753,212428
7.71378,298657
7.72003,375347
7.72630,381453
7.73255,326692
7.73880,273635
7.74507,220822
7.75132,182685
7.75757,158687
7.76383,144572
7.77008,137899
7.77633,153741
7.78260,154323
7.78885,165524
7.79510,161432
7.80137,154310
7.80762,152244
7.81387,161677
7.82013,219215
7.82638,284474
7.83263,317085
7.83890,282021
7.84515,228532
7.85140,205628
7.85767,240793
7.86392,269802
7.87017,262468
7.87643,248563
7.88268,244096
7.88893,230953
7.89518,206238
7.90145,192744
7.90770,200204
7.91395,205012
7.92022,204973
7.92647,186228
7.93272,176716
7.93898,172132
7.94523,192031
7.95148,233394
7.95775,273216
7.96400,262022
7.97025,253217
7.97652,269555
7.98277,336308
7.98902,537385
7.99528,824927
8.00153,977853
8.00778,1076962
8.01405,1490978
8.02030,2226101
8.02655,2505923
8.03282,2046071
8.03907,1259977
8.04532,909076
8.05158,952366
8.05783,1011648
8.06408,808102
8.07035,501494
8.07660,288579
8.08285,206498
8.08912,203687
8.09537,228892
8.10162,243312
8.10788,262970
8.11413,272076
8.12038,255079
8.12663,220885
8.13290,200630
8.13915,187117
8.14540,174520
8.15167,162368
8.15792,156273
8.16417,147422
8.17043,142240
8.17668,139207
8.18293,136905
8.18920,136796
8.19545,134017
8.20170,127453
8.20797,131000
8.21422,128287
8.22047,135172
8.22673,145021
8.23298,156197
8.23923,168783
8.24550,168399
8.25175,162031
8.25800,166806
8.26427,161928
8.27052,166532
8.27677,185776
8.28303,221044
8.28928,255718
8.29553,247885
8.30180,199402
8.30805,152670
8.31430,127343
8.32057,112065
8.32682,116972
8.33307,126619
8.33932,138858
8.34558,131959
8.35183,122451
8.35808,126378
8.36435,131758
8.37060,137127
8.37685,130448
8.38312,125056
8.38937,119902
8.39562,119558
8.40188,122209
8.40813,123882
8.41438,129563
8.42065,138739
8.42690,138030
8.43315,132266
8.43942,132594
8.44567,126606
8.45192,121208
8.45818,123190
8.46443,126401
8.47068,124404
8.47695,129736
8.48320,136843
8.48945,141683
8.49572,147811
8.50197,142356
8.50822,156151
8.51448,151009
8.52073,139888
8.52698,120946
8.53325,112474
8.53950,109014
8.54575,120102
8.55202,135196
8.55827,203283
8.56452,338866
8.57077,491380
8.57703,540046
8.58328,500567
8.58953,552122
8.59580,732794
8.60205,1016955
8.60830,1913040
8.61457,4807778
8.62082,1.014629E+07
8.62707,1.461645E+07
8.63333,1.392322E+07
8.63958,8208929
8.64583,2785413
8.65210,717778
8.65835,282414
8.66460,219819
8.67087,215317
8.67712,201290
8.68337,182895
8.68963,160799
8.69588,153989
8.70213,180618
8.70840,220175
8.71465,241985
8.72090,225666
8.72717,201977
8.73342,177805
8.73967,190762
8.74593,209895
8.75218,195962
8.75843,167601
8.76470,139430
8.77095,117901
8.77720,121738
8.78345,126111
8.78972,121988
8.79597,110831
8.80222,107080
8.80848,107997
8.81473,106894
8.82098,139213
8.82725,290726
8.83350,810127
8.83975,2211016
8.84602,4953738
8.85227,8260429
8.85852,1.107347E+07
8.86478,1.12841E+07
8.87103,9334378
8.87728,5978026
8.88355,1888743
8.88980,465547
8.89605,259799
8.90232,215012
8.90857,188126
8.91482,165357
8.92108,153000
8.92733,143937
8.93358,142106
8.93985,141797
8.94610,154190
8.95235,174966
8.95862,216248
8.96487,269805
8.97112,308474
8.97738,335716
8.98363,378018
8.98988,438140
8.99615,578352
9.00240,804443
9.00865,1005775
9.01490,984775
9.02117,741753
9.02742,458168
9.03367,287265
9.03993,219911
9.04618,192006
9.05243,178482
9.05870,166962
9.06495,170508
9.07120,170661
9.07747,158760
9.08372,157192
9.08997,170756
9.09623,181366
9.10248,180801
9.10873,169963
9.11500,151400
9.12125,131988
9.12750,123633
9.13377,116978
9.14002,123962
9.14627,138734
9.15253,185332
9.15878,249297
9.16503,303761
9.17130,310098
9.17755,316640
9.18380,401733
9.19007,542811
9.19632,620581
9.20257,515083
9.20883,335487
9.21508,211364
9.22133,150072
9.22758,136376
9.23385,159946
9.24010,215421
9.24635,269894
9.25262,279408
9.25887,227464
9.26512,169044
9.27138,130616
9.27763,114515
9.28388,117825
9.29015,140464
9.29640,176322
9.30265,239104
9.30892,305049
9.31517,383327
9.32142,469150
9.32768,474615
9.33393,505885
9.34018,758943
9.34645,1221561
9.35270,1490543
9.35895,1264508
9.36522,770908
9.37147,502090
9.37772,967197
9.38398,3222093
9.39023,7972363
9.39648,1.321049E+07
9.40275,1.519876E+07
9.40900,1.159211E+07
9.41525,5154086
9.42152,1536922
9.42777,896750
9.43402,2397534
9.44027,7785926
9.44653,1.883899E+07
9.45278,3.167487E+07
9.45903,4.083607E+07
9.46530,4.297142E+07
9.47155,3.658552E+07
9.47780,1.632919E+07
9.48407,3307470
9.49032,706140
9.49657,318921
9.50283,207483
9.50908,177145
9.51533,172062
9.52160,181262
9.52785,173749
9.53410,171384
9.54037,172437
9.54662,177411
9.55287,167472
9.55913,163184
9.56538,178211
9.57163,202608
9.57790,213466
9.58415,207645
9.59040,197792
9.59667,196767
9.60292,225126
9.60917,280637
9.61543,306744
9.62168,277921
9.62793,213163
9.63420,163325
9.64045,144941
9.64670,139755
9.65297,144011
9.65922,139387
9.66547,137460
9.67172,183234
9.67798,511113
9.68423,1995434
9.69048,5907026
9.69675,1.129847E+07
9.70300,1.490666E+07
9.70925,1.328036E+07
9.71552,7294680
9.72177,2487793
9.72802,826414
9.73428,554504
9.74053,560519
9.74678,507048
9.75305,368066
9.75930,241955
9.76555,178741
9.77182,159248
9.77807,160583
9.78432,148907
9.79058,135369
9.79683,135648
9.80308,123005
9.80935,117355
9.81560,106588
9.82185,110830
9.82812,116615
9.83437,133801
9.84062,161137
9.84688,198817
9.85313,372572
9.85938,1096699
9.86565,2931040
9.87190,5802517
9.87815,7454335
9.88440,6186792
9.89067,3276876
9.89692,1373865
9.90317,974203
9.90943,1234725
9.91568,1284367
9.92193,882141
9.92820,431204
9.93445,213969
9.94070,151302
9.94697,144770
9.95322,178734
9.95947,282846
9.96573,528076
9.97198,828922
9.97823,1081988
9.98450,1250340
9.99075,1390058
9.99700,1406857
10.00327,1099553
10.00952,671995
10.01577,363209
10.02203,221737
10.02828,168308
10.03453,147764
10.04080,138367
10.04705,146050
10.05330,143812
10.05957,143400
10.06582,118459
10.07207,110804
10.07833,108134
10.08458,119652
10.09083,144326
10.09708,165717
10.10335,177344
10.10960,162542
10.11585,132907
10.12212,117487
10.12837,100372
10.13462,93627
10.14088,92234
10.14713,88154
10.15338,92817
10.15965,95254
10.16590,95289
10.17215,100948
10.17842,106886
10.18467,119902
10.19092,122110
10.19718,118144
10.20343,107765
10.20968,103910
10.21595,118179
10.22220,178141
10.22845,287801
10.23472,430943
10.24097,545357
10.24722,536301
10.25348,410422
10.25973,291955
10.26598,228553
10.27225,189242
10.27850,150211
10.28475,140723
10.29102,149778
10.29727,170335
10.30352,167631
10.30978,146095
10.31603,128791
10.32228,120864
10.32853,115114
10.33480,116090
10.34105,116296
10.34730,107047
10.35357,101709
10.35982,108697
10.36607,110865
10.37233,113984
10.37858,112061
10.38483,99110
10.39110,93957
10.39735,87229
10.40360,80237
10.40987,76339
10.41612,79253
10.42237,89855
10.42863,99208
10.43488,108188
10.44113,108853
10.44740,119896
10.45365,128390
10.45990,128220
10.46617,130090
10.47242,140580
10.47867,195794
10.48493,307089
10.49118,373279
10.49743,339397
10.50370,237058
10.50995,150768
10.51620,111260
10.52247,107421
10.52872,131638
10.53497,180790
10.54122,208793
10.54748,208940
10.55373,178083
10.55998,148551
10.56625,146117
10.57250,147001
10.57875,161954
10.58502,170491
10.59127,161774
10.59752,179614
10.60378,366268
10.61003,1161939
10.61628,3220678
10.62255,6084217
10.62880,8095314
10.63505,7082774
10.64132,4002442
10.64757,1477037
10.65382,455880
10.66008,193598
10.66633,141436
10.67258,141224
10.67885,150727
10.68510,152484
10.69135,138215
10.69762,116404
10.70387,102281
10.71012,96665
10.71638,100468
10.72263,115951
10.72888,122227
10.73515,132933
10.74140,133597
10.74765,132347
10.75392,128093
10.76017,124967
10.76642,137096
10.77267,157278
10.77893,170015
10.78518,164150
10.79143,149046
10.79770,136218
10.80395,128293
10.81020,124773
10.81647,144361
10.82272,162561
10.82897,156883
10.83523,131616
10.84148,114059
10.84773,105945
10.85400,113516
10.86025,123706
10.86650,133150
10.87277,138172
10.87902,141423
10.88527,138961
10.89153,133968
10.89778,141072
10.90403,155605
10.91030,159579
10.91655,160070
10.92280,148806
10.92907,142498
10.93532,146787
10.94157,133771
10.94783,112613
10.95408,105340
10.96033,148241
10.96660,398767
10.97285,1387309
10.97910,3806902
10.98535,8045718
10.99162,1.288924E+07
10.99787,1.495473E+07
11.00412,1.220128E+07
11.01038,5921123
11.01663,1863339
11.02288,469114
11.02915,210827
11.03540,199937
11.04165,217858
11.04792,230903
11.05417,244562
11.06042,264612
11.06668,265217
11.07293,221469
11.07918,161094
11.08545,125210
11.09170,109752
11.09795,111512
11.10422,121696
11.11047,127222
11.11672,133580
11.12298,144311
11.12923,156623
11.13548,166961
11.14175,163473
11.14800,167136
11.15425,215242
11.16052,317736
11.16677,483885
11.17302,553848
11.17928,495366
11.18553,333684
11.19178,200958
11.19805,145527
11.20430,163475
11.21055,239326
11.21680,349328
11.22307,391494
11.22932,350184
11.23557,258031
11.24183,197635
11.24808,187814
11.25433,203054
11.26060,212485
11.26685,194810
11.27310,181081
11.27937,189555
11.28562,201314
11.29187,197288
11.29813,161159
11.30438,139387
11.31063,137182
11.31690,185894
11.32315,293160
11.32940,442141
11.33567,510028
11.34192,447420
11.34817,275123
11.35443,162458
11.36068,114157
11.36693,99957
11.37320,95287
11.37945,92132
11.38570,86889
11.39197,89571
11.39822,93603
11.40447,102717
11.41073,108425
11.41698,112670
11.42323,105912
11.42948,104703
11.43575,104533
11.44200,117528
11.44825,132880
11.45452,139297
11.46077,133688
11.46702,121328
11.47328,111173
11.47953,107308
11.48578,112861
11.49205,112382
11.49830,114266
11.50455,112369
11.51082,112382
11.51707,112124
11.52332,102335
11.52958,106088
11.53583,107920
11.54208,115291
11.54835,124105
11.55460,118976
11.56085,107891
11.56712,99500
11.57337,98661
11.57962,99122
11.58588,100251
11.59213,106513
11.59838,111915
11.60465,109852
11.61090,105880
11.61715,99931
11.62342,103470
11.62967,101307
11.63592,101062
11.64218,109750
11.64843,119955
11.65468,135663
11.66093,156659
11.66720,162055
11.67345,147486
11.67970,130986
11.68597,117700
11.69222,112079
11.69847,122090
11.70473,135026
11.71098,161006
11.71723,182883
11.72350,197965
11.72975,186252
11.73600,171777
11.74227,164892
11.74852,146364
11.75477,127830
11.76103,119817
11.76728,121415
11.77353,131044
11.77980,146078
11.78605,146997
11.79230,157454
11.79857,165937
11.80482,164271
11.81107,155077
11.81733,152035
11.82358,159731
11.82983,239913
11.83610,407641
11.84235,582280
11.84860,613136
11.85487,475460
11.86112,295346
11.86737,196316
11.87362,152672
11.87988,153872
11.88613,197305
11.89238,267843
11.89865,328314
11.90490,323627
11.91115,289917
11.91742,232302
11.92367,186641
11.92992,167146
11.93618,198634
11.94243,348898
11.94868,793302
11.95495,1818600
11.96120,3495363
11.96745,5053192
11.97372,5438009
11.97997,3867481
11.98622,1866051
11.99248,675062
11.99873,292693
12.00498,205474
12.01125,185872
12.01750,198798
12.02375,215106
12.03002,239105
12.03627,301205
12.04252,399123
12.04878,614811
12.05503,870257
12.06128,1039064
12.06755,985957
12.07380,706421
12.08005,456315
12.08630,343601
12.09257,312025
12.09882,296691
12.10507,278403
12.11133,247098
12.11758,210493
12.12383,180547
12.13010,167414
12.13635,159927
12.14260,157398
12.14887,153167
12.15512,148564
12.16137,153161
12.16763,159845
12.17388,170902
12.18013,174557
12.18640,181922
12.19265,193420
12.19890,236170
12.20517,336105
12.21142,516679
12.21767,725397
12.22393,898620
12.23018,879276
12.23643,720335
12.24270,536195
12.24895,496914
12.25520,625915
12.26147,855256
12.26772,1093232
12.27397,1089290
12.28023,841870
12.28648,569580
12.29273,375442
12.29900,257616
12.30525,183829
12.31150,137237
12.31775,116386
12.32402,107142
12.33027,108582
12.33652,120534
12.34278,138532
12.34903,173724
12.35528,191015
12.36155,196121
12.36780,173012
12.37405,165020
12.38032,182432
12.38657,236317
12.39282,291847
12.39908,302744
12.40533,257244
12.41158,210227
12.41785,172101
12.42410,168780
12.43035,194644
12.43662,232633
12.44287,272901
12.44912,255175
12.45538,220059
12.46163,190199
12.46788,185057
12.47415,235585
12.48040,403659
12.48665,756059
12.49292,1252589
12.49917,1627019
12.50542,1567124
12.51168,1074817
12.51793,526456
12.52418,248430
12.53043,171632
12.53670,191398
12.54295,260498
12.54920,303219
12.55547,298483
12.56172,248011
12.56797,229234
12.57423,331886
12.58048,631776
12.58673,1138705
12.59300,1583946
12.59925,1613389
12.60550,1356852
12.61177,1215816
12.61802,1454875
12.62427,2106358
12.63053,3062337
12.63678,4247787
12.64303,6002773
12.64930,8312258
12.65555,1.152304E+07
12.66180,1.511562E+07
12.66807,1.877814E+07
12.67432,2.230796E+07
12.68057,2.258876E+07
12.68683,1.740475E+07
12.69308,7276838
12.69933,1804856
12.70560,524456
12.71185,321575
12.71810,292208
12.72437,313297
12.73062,339956
12.73687,406187
12.74312,466958
12.74938,462971
12.75563,398265
12.76188,342695
12.76815,316835
12.77440,282563
12.78065,248478
12.78692,232072
12.79317,215013
12.79942,200235
12.80568,197768
12.81193,189613
12.81818,180966
12.82445,179441
12.83070,179140
12.83695,183570
12.84322,179060
12.84947,175200
12.85572,174914
12.86198,178141
12.86823,174696
12.87448,188105
12.88075,240541
12.88700,396585
12.89325,714234
12.89952,1036722
12.90577,1121498
12.91202,905450
12.91828,582119
12.92453,373661
12.93078,255879
12.93705,188651
12.94330,153102
12.94955,130621
12.95582,121318
12.96207,116465
12.96832,109240
12.97457,106228
12.98083,107677
12.98708,111892
12.99333,123283
12.99960,129380
13.00585,146992
13.01210,166666
13.01837,191840
13.02462,234894
13.03087,323103
13.03713,432015
13.04338,471984
13.04963,402854
13.05590,269376
13.06215,175647
13.06840,142738
13.07467,169094
13.08092,230465
13.08717,319714
13.09343,366201
13.09968,364740
13.10593,343113
13.11220,332765
13.11845,307547
13.12470,247892
13.13097,212929
13.13722,200258
13.14347,211625
13.14973,218532
13.15598,213043
13.16223,202759
13.16850,181614
13.17475,154608
13.18100,134318
13.18725,122296
13.19352,111693
13.19977,106876
13.20602,104670
13.21228,113654
13.21853,119026
13.22478,131562
13.23105,146443
13.23730,173278
13.24355,187185
13.24982,180063
13.25607,183077
13.26232,193962
13.26858,203440
13.27483,196709
13.28108,171748
13.28735,144526
13.29360,139843
13.29985,149067
13.30612,157714
13.31237,154965
13.31862,149339
13.32488,128179
13.33113,116432
13.33738,117227
13.34365,123672
13.34990,139423
13.35615,151739
13.36242,152555
13.36867,139219
13.37492,122316
13.38118,107963
13.38743,99644
13.39368,92348
13.39995,94721
13.40620,95116
13.41245,104164
13.41870,113026
13.42497,124524
13.43122,147975
13.43747,187301
13.44373,207058
13.44998,209749
13.45623,180553
13.46250,152463
13.46875,128426
13.47500,124699
13.48127,123362
13.48752,128408
13.49377,133782
13.50003,129034
13.50628,128901
13.51253,128557
13.51880,132271
13.52505,137632
13.53130,157693
13.53757,185187
13.54382,265067
13.55007,467102
13.55633,762627
13.56258,939185
13.56883,835247
13.57510,533898
13.58135,302924
13.58760,212585
13.59387,212799
13.60012,248338
13.60637,284860
13.61263,322182
13.61888,310422
13.62513,288731
13.63138,244643
13.63765,201947
13.64390,161421
13.65015,134623
13.65642,119240
13.66267,115901
13.66892,114863
13.67518,121977
13.68143,134504
13.68768,144950
13.69395,147464
13.70020,145369
13.70645,133486
13.71272,125265
13.71897,114456
13.72522,118133
13.73148,120231
13.73773,126135
13.74398,136967
13.75025,187546
13.75650,350826
13.76275,678983
13.76902,1053739
13.77527,1122730
13.78152,829425
13.78778,449049
13.79403,234302
13.80028,178757
13.80655,201263
13.81280,296669
13.81905,549581
13.82532,973430
13.83157,1448332
13.83782,1557712
13.84408,1139091
13.85033,655516
13.85658,378939
13.86283,274435
13.86910,209448
13.87535,180714
13.88160,224696
13.88787,407520
13.89412,870090
13.90037,1907058
13.90663,3679521
13.91288,6627362
13.91913,8083600
13.92540,7066960
13.93165,3855874
13.93790,1521850
13.94417,504643
13.95042,214086
13.95667,160192
13.96293,152268
13.96918,148155
13.97543,149071
13.98170,163305
13.98795,181041
13.99420,196845
14.00047,202066
14.00672,234893
14.01297,275052
14.01923,301927
14.02548,253002
14.03173,203922
14.03800,152500
14.04425,138768
14.05050,145610
14.05677,160072
14.06302,184731
14.06927,239044
14.07552,276828
14.08178,284632
14.08803,252184
14.09428,209848
14.10055,189913
14.10680,168725
14.11305,158022
14.11932,151887
14.12557,161475
14.13182,166799
14.13808,151992
14.14433,138472
14.15058,133844
14.15685,141695
14.16310,138737
14.16935,139914
14.17562,141065
14.18187,127879
14.18812,127286
14.19438,134639
14.20063,144780
14.20688,171575
14.21315,210158
14.21940,300692
14.22565,421343
14.23192,526250
14.23817,523432
14.24442,380660
14.25068,234074
14.25693,163327
14.26318,151675
14.26945,160248
14.27570,171739
14.28195,196647
14.28822,222608
14.29447,243280
14.30072,265705
14.30697,287100
14.31323,301294
14.31948,400033
14.32573,604303
14.33200,766445
14.33825,706240
14.34450,526357
14.35077,336164
14.35702,231383
14.36327,203940
14.36953,193080
14.37578,195960
14.38203,202025
14.38830,207117
14.39455,239837
14.40080,287784
14.40707,331336
14.41332,349937
14.41957,329390
14.42583,306805
14.43208,287008
14.43833,260833
14.44460,260778
14.45085,304901
14.45710,447567
14.46337,684421
14.46962,945383
14.47587,1264198
14.48213,1491202
14.48838,1478210
14.49463,1147029
14.50090,726026
14.50715,415852
14.51340,269765
14.51965,218391
14.52592,229859
14.53217,238159
14.53842,232450
14.54468,218869
14.55093,201682
14.55718,216914
14.56345,218808
14.56970,231583
14.57595,235938
14.58222,235278
14.58847,208565
14.59472,181730
14.60098,178382
14.60723,186931
14.61348,193311
14.61975,196684
14.62600,186910
14.63225,178539
14.63852,191478
14.64477,234708
14.65102,304607
14.65728,340742
14.66353,308800
14.66978,258211
14.67605,222337
14.68230,215571
14.68855,221642
14.69482,257415
14.70107,319137
14.70732,364361
14.71358,385634
14.71983,424642
14.72608,580120
14.73233,927638
14.73860,1409818
14.74485,1723406
14.75110,1624882
14.75737,1186276
14.76362,849828
14.76987,542919
14.77613,324705
14.78238,210273
14.78863,180258
14.79490,245790
14.80115,435067
14.80740,835261
14.81367,1286517
14.81992,1372304
14.82617,1021688
14.83243,534763
14.83868,234462
14.84493,134110
14.85120,119388
14.85745,114088
14.86370,118195
14.86997,124078
14.87622,127912
14.88247,133164
14.88873,138264
14.89498,134251
14.90123,123005
14.90750,120624
14.91375,130703
14.92000,150290
14.92627,191579
14.93252,233018
14.93877,246407
14.94503,226118
14.95128,203433
14.95753,193391
14.96378,193901
14.97005,204977
14.97630,225416
14.98255,241420
14.98882,255771
14.99507,251376
15.00132,236044
15.00758,223512
15.01383,213929
15.02008,204926
15.02635,193259
15.03260,196421
15.03885,208811
15.04512,224855
15.05137,235960
15.05762,253912
15.06388,270214
15.07013,269799
15.07638,274094
15.08265,276836
15.08890,293279
15.09515,330482
15.10142,378791
15.10767,419086
15.11392,452832
15.12018,506911
15.12643,601993
15.13268,719976
15.13895,848648
15.14520,985676
15.15145,1095957
15.15772,1397808
15.16397,2295135
15.17022,4249654
15.17647,6804268
15.18273,8152596
15.18898,6119266
15.19523,3282653
15.20150,1299981
15.20775,453553
15.21400,230526
15.22027,173672
15.22652,157993
15.23277,141585
15.23903,145252
15.24528,151462
15.25153,162296
15.25780,168018
15.26405,164286
15.27030,162090
15.27657,158727
15.28282,157036
15.28907,157599
15.29533,157627
15.30158,163161
15.30783,168415
15.31410,172760
15.32035,188107
15.32660,224730
15.33287,246658
15.33912,234868
15.34537,212207
15.35163,181187
15.35788,201545
15.36413,245897
15.37040,277525
15.37665,256343
15.38290,215991
15.38915,179105
15.39542,156601
15.40167,147667
15.40792,139453
15.41418,136359
15.42043,140818
15.42668,153656
15.43295,178985
15.43920,215745
15.44545,277636
15.45172,378825
15.45797,460989
15.46422,475999
15.47048,415261
15.47673,320749
15.48298,229804
15.48925,182350
15.49550,162341
15.50175,178644
15.50802,219336
15.51427,323306
15.52052,559683
15.52678,1044283
15.53303,1817735
15.53928,3020107
15.54555,5125869
15.55180,7987312
15.55805,1.078603E+07
15.56432,1.151486E+07
15.57057,7920981
15.57682,2847721
15.58308,792198
15.58933,333048
15.59558,275822
15.60185,270057
15.60810,263647
15.61435,237814
15.62060,210455
15.62687,202020
15.63312,228932
15.63937,246877
15.64563,245828
15.65188,213485
15.65813,187979
15.66440,184568
15.67065,190833
15.67690,225090
15.68317,273373
15.68942,286447
15.69567,265758
15.70193,239179
15.70818,220692
15.71443,193824
15.72070,173873
15.72695,150374
15.73320,145682
15.73947,155618
15.74572,168362
15.75197,174990
15.75823,172532
15.76448,156051
15.77073,136151
15.77700,127712
15.78325,132823
15.78950,149994
15.79577,175080
15.80202,195700
15.80827,190617
15.81453,167885
15.82078,153778
15.82703,154230
15.83328,176781
15.83955,233033
15.84580,317156
15.85205,409990
15.85832,386926
15.86457,300423
15.87082,217831
15.87708,178289
15.88333,163924
15.88958,155571
15.89585,150892
15.90210,142611
15.90835,132959
15.91462,132646
15.92087,131555
15.92712,131741
15.93338,128299
15.93963,135570
15.94588,139722
15.95215,164450
15.95840,225729
15.96465,319644
15.97092,401775
15.97717,409349
15.98342,317452
15.98968,209905
15.99593,140024
16.00218,113965
16.00845,126637
16.01470,157989
16.02095,202812
16.02722,273837
16.03347,393288
16.03972,644167
16.04597,1023342
16.05223,1503836
16.05848,1747561
16.06473,1549540
16.07100,1174811
16.07725,1077518
16.08350,1360184
16.08977,1622783
16.09602,1511113
16.10227,1230604
16.10853,937784
16.11478,854057
16.12103,950607
16.12730,1056691
16.13355,1013953
16.13980,786185
16.14607,520768
16.15232,331636
16.15857,262666
16.16483,254760
16.17108,265260
16.17733,257254
16.18360,247497
16.18985,263094
16.19610,324072
16.20237,374461
16.20862,346587
16.21487,251321
16.22113,167214
16.22738,130239
16.23363,117130
16.23990,119804
16.24615,121357
16.25240,135898
16.25867,160481
16.26492,176411
16.27117,174919
16.27742,154185
16.28368,129405
16.28993,112689
16.29618,109111
16.30245,108068
16.30870,105059
16.31495,107860
16.32122,114112
16.32747,118772
16.33372,130765
16.33998,140166
16.34623,146603
16.35248,153723
16.35875,156771
16.36500,145862
16.37125,147243
16.37752,134905
16.38377,129250
16.39002,123922
16.39628,125153
16.40253,124918
16.40878,135541
16.41505,142943
16.42130,151224
16.42755,170238
16.43382,237631
16.44007,407956
16.44632,719832
16.45258,1025296
16.45883,1092249
16.46508,981506
16.47135,820206
16.47760,691391
16.48385,553232
16.49010,416988
16.49637,325324
16.50262,284453
16.50887,288807
16.51513,353013
16.52138,457148
16.52763,547223
16.53390,600860
16.54015,576745
16.54640,540173
16.55267,481949
16.55892,442884
16.56517,374022
16.57143,333140
16.57768,292869
16.58393,288417
16.59020,278983
16.59645,276334
16.60270,282281
16.60897,279769
16.61522,286340
16.62147,294103
16.62773,306939
16.63398,313054
16.64023,340162
16.64650,431604
16.65275,512787
16.65900,539024
16.66527,476736
16.67152,378925
16.67777,326817
16.68403,307254
16.69028,292544
16.69653,281191
16.70280,260606
16.70905,235573
16.71530,214305
16.72155,203779
16.72782,224577
16.73407,241960
16.74032,287091
16.74658,364319
16.75283,521025
16.75908,849295
16.76535,1568852
16.77160,3229006
16.77785,6258420
16.78412,9926551
16.79037,1.28307E+07
16.79662,1.250426E+07
16.80288,9300476
16.80913,6869812
16.81538,5932535
16.82165,6089512
16.82790,6702409
16.83415,8622735
16.84042,1.08983E+07
16.84667,1.306996E+07
16.85292,1.418472E+07
16.85918,1.332365E+07
16.86543,1.039227E+07
16.87168,7470621
16.87795,6142753
16.88420,6543462
16.89045,8039353
16.89672,9857265
16.90297,1.038062E+07
16.90922,9663545
16.91548,7384463
16.92173,5279711
16.92798,3859615
16.93423,3516480
16.94050,3600770
16.94675,3691230
16.95300,3425476
16.95927,3005931
16.96552,2707151
16.97177,2268781
16.97803,1829449
16.98428,1409570
16.99053,1138959
16.99680,1058611
17.00305,1147590
17.00930,1795858
17.01557,3691664
17.02182,7378311
17.02807,1.353054E+07
17.03433,2.023238E+07
17.04058,2.581735E+07
17.04683,3.138562E+07
17.05310,3.742664E+07
17.05935,4.368355E+07
17.06560,4.774838E+07
17.07187,4.965156E+07
17.07812,4.866309E+07
17.08437,4.630003E+07
17.09063,4.34902E+07
17.09688,4.055271E+07
17.10313,3.890218E+07
17.10940,3.760123E+07
17.11565,3.651955E+07
17.12190,4.114129E+07
17.12817,2.903486E+07
17.13442,9550634
17.14067,8787508
17.14693,8659221
17.15318,8598339
17.15943,1.110495E+07
17.16568,1.772577E+07
17.17195,2.812942E+07
17.17820,3.880757E+07
17.18445,4.540601E+07
17.19072,4.708024E+07
17.19697,3.986388E+07
17.20322,1.558293E+07
17.20948,3909803
17.21573,2927032
17.22198,3856967
17.22825,5134456
17.23450,6569809
17.24075,1.001638E+07
17.24702,1.685837E+07
17.25327,2.736898E+07
17.25952,3.892152E+07
17.26578,4.673875E+07
17.27203,4.90851E+07
17.27828,4.746712E+07
17.28455,3.291094E+07
17.29080,1.115745E+07
17.29705,6425486
17.30332,8772694
17.30957,1.160169E+07
17.31582,1.076015E+07
17.32208,6895395
17.32833,3282442
17.33458,1445047
17.34085,855210
17.34710,723216
17.35335,685893
17.35962,662100
17.36587,631931
17.37212,617232
17.37837,630406
17.38463,674340
17.39088,721064
17.39713,780431
17.40340,874714
17.40965,1116248
17.41590,1495388
17.42217,1778074
17.42842,1766450
17.43467,1539774
17.44093,1421368
17.44718,1567931
17.45343,2207337
17.45970,3106284
17.46595,3528950
17.47220,2995934
17.47847,2076060
17.48472,1283355
17.49097,960320
17.49723,866687
17.50348,797759
17.50973,780543
17.51600,918401
17.52225,1166502
17.52850,1262815
17.53477,1141961
17.54102,857253
17.54727,644635
17.55353,595821
17.55978,814262
17.56603,1328468
17.57230,2727723
17.57855,5863489
17.58480,1.042007E+07
17.59107,1.282408E+07
17.59732,1.089648E+07
17.60357,5929032
17.60982,2348227
17.61608,1084293
17.62233,907707
17.62858,1017919
17.63485,1040157
17.64110,851720
17.64735,616493
17.65362,455919
17.65987,389950
17.66612,363934
17.67238,351580
17.67863,351741
17.68488,373622
17.69115,389457
17.69740,398617
17.70365,402370
17.70992,377167
17.71617,358030
17.72242,330963
17.72868,316673
17.73493,324736
17.74118,344325
17.74745,381962
17.75370,405311
17.75995,413092
17.76622,427915
17.77247,499175
17.77872,645615
17.78498,853919
17.79123,1152010
17.79748,1662693
17.80375,2350688
17.81000,2822979
17.81625,2609958
17.82250,2089915
17.82877,1441842
17.83502,1086826
17.84127,884932
17.84753,792725
17.85378,783120
17.86003,1161445
17.86630,2443289
17.87255,5622278
17.87880,1.016427E+07
17.88507,1.367172E+07
17.89132,1.248489E+07
17.89757,7552491
17.90383,3034518
17.91008,1073869
17.91633,562800
17.92260,432862
17.92885,397352
17.93510,377705
17.94137,364935
17.94762,350550
17.95387,351328
17.96013,353246
17.96638,363062
17.97263,355583
17.97890,344569
17.98515,327321
17.99140,325390
17.99767,375538
18.00392,470801
18.01017,582465
18.01643,654897
18.02268,625097
18.02893,512646
18.03518,422572
18.04145,365217
18.04770,336711
18.05395,314432
18.06022,290060
18.06647,257523
18.07272,254085
18.07898,255521
18.08523,266074
18.09148,299006
18.09775,354302
18.10400,409910
18.11025,431305
18.11652,435372
18.12277,493891
18.12902,756990
18.13528,1421375
18.14153,2707527
18.14778,4588290
18.15405,5115626
18.16030,4032138
18.16655,2106320
18.17282,836537
18.17907,405718
18.18532,303112
18.19158,270878
18.19783,257318
18.20408,254376
18.21035,274706
18.21660,311168
18.22285,359346
18.22912,369276
18.23537,327378
18.24162,280912
18.24788,265094
18.25413,251294
18.26038,261560
18.26663,272289
18.27290,320603
18.27915,394126
18.28540,499669
18.29167,738298
18.29792,1172649
18.30417,1717917
18.31043,1759017
18.31668,1390967
18.32293,839556
18.32920,461110
18.33545,286057
18.34170,214940
18.34797,197967
18.35422,194565
18.36047,193383
18.36673,193554
18.37298,206238
18.37923,216511
18.38550,257436
18.39175,312523
18.39800,340338
18.40427,334963
18.41052,283921
18.41677,247165
18.42303,222566
18.42928,216672
18.43553,200038
18.44180,191623
18.44805,187278
18.45430,190370
18.46057,188848
18.46682,200705
18.47307,216996
18.47932,223810
18.48558,214937
18.49183,197988
18.49808,194100
18.50435,188524
18.51060,194614
18.51685,193778
18.52312,193817
18.52937,199168
18.53562,199915
18.54188,203860
18.54813,206177
18.55438,208778
18.56065,205744
18.56690,208219
18.57315,199305
18.57942,193828
18.58567,188455
18.59192,180794
18.59818,176314
18.60443,180724
18.61068,182791
18.61695,190228
18.62320,190139
18.62945,188662
18.63572,201203
18.64197,206423
18.64822,219341
18.65448,224336
18.66073,212308
18.66698,207634
18.67325,202956
18.67950,203941
18.68575,196164
18.69200,188172
18.69827,181667
18.70452,187877
18.71077,207319
18.71703,237359
18.72328,256161
18.72953,242288
18.73580,208559
18.74205,183748
18.74830,178693
18.75457,172830
18.76082,171463
18.76707,173988
18.77333,172644
18.77958,179847
18.78583,179915
18.79210,181131
18.79835,170830
18.80460,171150
18.81087,168520
18.81712,175814
18.82337,177066
18.82963,179585
18.83588,186500
18.84213,192075
18.84840,202337
18.85465,241813
18.86090,389296
18.86717,874732
18.87342,1913805
18.87967,3785328
18.88593,5634275
18.89218,6940706
18.89843,7744476
18.90470,7853537
18.91095,6559670
18.91720,4080950
18.92345,1889791
18.92972,732751
18.93597,432749
18.94222,450491
18.94848,481961
18.95473,435836
18.96098,347871
18.96725,257583
18.97350,203329
18.97975,175996
18.98602,168577
18.99227,166495
18.99852,170455
19.00478,180960
19.01103,184857
19.01728,189406
19.02355,192747
19.02980,194435
19.03605,196978
19.04232,209399
19.04857,224953
19.05482,236050
19.06108,222704
19.06733,196274
19.07358,179649
19.07985,165991
19.08610,160209
19.09235,164922
19.09862,161699
19.10487,166428
19.11112,173549
19.11738,182739
19.12363,192980
19.12988,203347
19.13613,222677
19.14240,225726
19.14865,223986
19.15490,208570
19.16117,194058
19.16742,179165
19.17367,173318
19.17993,168756
19.18618,170882
19.19243,167587
19.19870,169487
19.20495,164783
19.21120,152959
19.21747,149510
19.22372,146713
19.22997,145359
19.23623,144119
19.24248,143720
19.24873,145534
19.25500,150212
19.26125,149046
19.26750,150666
19.27377,147481
19.28002,149178
19.28627,153257
19.29253,153054
19.29878,153345
19.30503,150506
19.31130,146128
19.31755,141039
19.32380,135687
19.33007,137902
19.33632,141907
19.34257,156809
19.34882,168837
19.35508,183655
19.36133,180399
19.36758,183299
19.37385,174842
19.38010,168713
19.38635,168090
19.39262,169145
19.39887,182508
19.40512,190332
19.41138,193921
19.41763,186381
19.42388,168182
19.43015,152719
19.43640,151189
19.44265,144613
19.44892,150188
19.45517,147933
19.46142,145735
19.46768,139791
19.47393,140575
19.48018,137302
19.48645,136363
19.49270,136583
19.49895,145984
19.50522,153580
19.51147,170293
19.51772,187067
19.52398,198165
19.53023,192128
19.53648,176519
19.54275,169590
19.54900,183043
19.55525,188112
19.56152,190856
19.56777,181453
19.57402,163049
19.58027,151773
19.58653,146190
19.59278,147269
19.59903,145589
19.60530,146814
19.61155,142267
19.61780,144162
19.62407,149288
19.63032,173090
19.63657,205646
19.64283,226157
19.64908,222697
19.65533,193393
19.66160,174346
19.66785,175158
19.67410,214069
19.68037,255640
19.68662,289173
19.69287,288195
19.69913,290613
19.70538,279629
19.71163,257445
19.71790,253859
19.72415,231549
19.73040,203399
19.73667,185430
19.74292,185584
19.74917,183970
19.75543,184833
19.76168,180629
19.76793,184893
19.77420,194186
19.78045,211588
19.78670,196263
19.79295,183902
19.79922,187379
19.80547,167978
19.81172,168619
19.81798,154332
19.82423,155863
19.83048,151201
19.83675,169448
19.84300,148190
19.84925,175014
19.85552,200358
19.86177,206270
19.86802,234886
19.87428,255964
19.88053,245654
19.88678,219512
19.89305,194638
19.89930,210603
19.90555,337974
19.91182,789981
19.91807,1978408
19.92432,4269530
19.93058,6334219
19.93683,6464553
19.94308,4368616
19.94935,2147355
19.95560,784928
19.96185,314104
19.96812,219355
19.97437,209663
19.98062,222769
19.98688,231419
19.99313,219066
19.99938,196493
20.00565,185278
20.01190,169470
20.01815,169371
20.02440,158591
20.03067,154085
20.03692,151381
20.04317,155358
20.04943,153349
20.05568,156674
20.06193,156846
20.06820,153276
20.07445,150021
20.08070,150638
20.08697,162504
20.09322,182352
20.09947,206041
20.10573,210648
20.11198,202642
20.11823,176156
20.12450,158330
20.13075,151432
20.13700,149410
20.14327,151076
20.14952,150657
20.15577,156011
20.16203,160536
20.16828,165022
20.17453,170921
20.18080,171669
20.18705,165151
20.19330,161288
20.19957,165299
20.20582,163623
20.21207,170705
20.21833,193896
20.22458,235733
20.23083,311572
20.23708,375888
20.24335,411363
20.24960,378779
20.25585,296807
20.26212,229791
20.26837,202443
20.27462,200909
20.28088,218081
20.28713,259862
20.29338,382811
20.29965,668467
20.30590,1111965
20.31215,1505737
20.31842,1393051
20.32467,962809
20.33092,517912
20.33718,315112
20.34343,243831
20.34968,232009
20.35595,228068
20.36220,216577
20.36845,195274
20.37472,177241
20.38097,174487
20.38722,169124
20.39348,167526
20.39973,164505
20.40598,170145
20.41225,174800
20.41850,204962
20.42475,310319
20.43102,605522
20.43727,1224898
20.44352,2016243
20.44978,2541645
20.45603,2399962
20.46228,1664661
20.46853,899544
20.47480,581027
20.48105,598342
20.48730,771969
20.49357,879667
20.49982,826840
20.50607,585636
20.51233,374126
20.51858,260352
20.52483,227373
20.53110,220312
20.53735,212195
20.54360,230776
20.54987,255137
20.55612,310176
20.56237,357763
20.56863,359512
20.57488,360832
20.58113,494752
20.58740,922067
20.59365,1719562
20.59990,2115083
20.60617,1856821
20.61242,1101590
20.61867,558625
20.62493,304642
20.63118,231313
20.63743,209760
20.64370,207427
20.64995,200706
20.65620,196015
20.66247,191605
20.66872,192850
20.67497,192856
20.68122,193127
20.68748,189686
20.69373,182653
20.69998,176381
20.70625,206383
20.71250,326460
20.71875,603755
20.72502,1068160
20.73127,1406146
20.73752,1351606
20.74378,989302
20.75003,600578
20.75628,468617
20.76255,596897
20.76880,892445
20.77505,1197147
20.78132,1237439
20.78757,949990
20.79382,606222
20.80008,383754
20.80633,275147
20.81258,225485
20.81885,203484
20.82510,196657
20.83135,185781
20.83762,182471
20.84387,183767
20.85012,185337
20.85638,180552
20.86263,183161
20.86888,180912
20.87515,174570
20.88140,174023
20.88765,167669
20.89392,165327
20.90017,168261
20.90642,164460
20.91267,163900
20.91893,171377
20.92518,198370
20.93143,291393
20.93770,553286
20.94395,1136027
20.95020,1821745
20.95647,2064422
20.96272,1724696
20.96897,1126685
20.97523,630457
20.98148,405180
20.98773,302143
20.99400,251229
21.00025,220999
21.00650,210899
21.01277,210272
21.01902,215599
21.02527,214079
21.03153,221781
21.03778,243305
21.04403,270317
21.05030,285465
21.05655,270405
21.06280,238329
21.06907,222285
21.07532,236605
21.08157,269627
21.08783,287810
21.09408,273135
21.10033,249713
21.10660,210040
21.11285,192141
21.11910,193390
21.12535,199175
21.13162,202117
21.13787,195624
21.14412,184677
21.15038,175514
21.15663,172577
21.16288,164834
21.16915,167044
21.17540,158578
21.18165,157071
21.18792,162598
21.19417,172627
21.20042,182750
21.20668,190633
21.21293,195754
21.21918,199495
21.22545,194068
21.23170,192413
21.23795,186820
21.24422,202106
21.25047,208424
21.25672,205643
21.26298,193965
21.26923,188919
21.27548,215392
21.28175,262626
21.28800,309075
21.29425,317697
21.30052,299561
21.30677,261214
21.31302,231508
21.31928,252303
21.32553,325208
21.33178,453402
21.33803,474569
21.34430,417749
21.35055,310257
21.35680,244211
21.36307,251451
21.36932,307457
21.37557,368927
21.38183,359830
21.38808,304190
21.39433,246758
21.40060,205141
21.40685,196099
21.41310,206505
21.41937,248516
21.42562,317895
21.43187,386692
21.43813,415415
21.44438,369352
21.45063,318184
21.45690,307741
21.46315,368604
21.46940,467554
21.47567,495156
21.48192,429247
21.48817,312246
21.49443,233471
21.50068,179489
21.50693,166804
21.51320,155672
21.51945,156709
21.52570,153378
21.53197,154630
21.53822,170957
21.54447,185188
21.55073,186015
21.55698,182966
21.56323,173565
21.56948,186785
21.57575,203215
21.58200,218978
21.58825,218258
21.59452,202225
21.60077,182754
21.60702,172683
21.61328,163993
21.61953,158930
21.62578,151360
21.63205,146403
21.63830,142886
21.64455,133976
21.65082,134960
21.65707,137942
21.66332,139021
21.66958,145410
21.67583,145526
21.68208,157435
21.68835,159447
21.69460,160966
21.70085,153297
21.70712,148921
21.71337,145164
21.71962,145269
21.72588,151173
21.73213,159231
21.73838,165872
21.74465,164687
21.75090,162365
21.75715,170249
21.76342,171546
21.76967,173992
21.77592,166432
21.78217,156030
21.78843,148564
21.79468,146340
21.80093,156823
21.80720,176860
21.81345,205862
21.81970,220918
21.82597,219990
21.83222,202894
21.83847,180397
21.84473,160806
21.85098,151932
21.85723,157659
21.86350,152056
21.86975,150047
21.87600,148285
21.88227,146549
21.88852,144319
21.89477,147829
21.90103,172237
21.90728,213474
21.91353,270245
21.91980,327250
21.92605,321093
21.93230,279092
21.93857,251948
21.94482,240728
21.95107,231646
21.95733,201135
21.96358,173522
21.96983,165954
21.97610,179205
21.98235,192967
21.98860,200328
21.99485,205858
22.00112,192476
22.00737,186595
22.01362,182414
22.01988,186805
22.02613,194661
22.03238,212591
22.03865,238555
22.04490,265569
22.05115,283564
22.05742,299764
22.06367,300164
22.06992,299193
22.07618,328901
22.08243,356333
22.08868,340120
22.09495,287059
22.10120,217548
22.10745,192976
22.11372,188673
22.11997,188791
22.12622,202944
22.13248,207348
22.13873,194857
22.14498,180825
22.15125,171163
22.15750,171535
22.16375,176088
22.17002,180814
22.17627,182563
22.18252,185111
22.18878,177348
22.19503,170573
22.20128,160940
22.20755,164463
22.21380,161911
22.22005,167083
22.22630,171336
22.23257,181222
22.23882,210961
22.24507,271978
22.25133,388421
22.25758,522447
22.26383,640170
22.27010,663712
22.27635,564857
22.28260,456044
22.28887,372233
22.29512,318074
22.30137,290580
22.30763,264132
22.31388,230251
22.32013,215194
22.32640,195326
22.33265,190811
22.33890,185778
22.34517,206684
22.35142,289098
22.35767,546541
22.36393,1015671
22.37018,1574324
22.37643,1663861
22.38270,1401523
22.38895,916207
22.39520,498433
22.40147,281430
22.40772,210140
22.41397,192636
22.42023,191783
22.42648,191784
22.43273,197481
22.43898,221783
22.44525,257006
22.45150,335237
22.45775,479364
22.46402,663095
22.47027,742622
22.47652,704033
22.48278,552047
22.48903,413246
22.49528,362600
22.50155,336108
22.50780,307940
22.51405,265186
22.52032,238722
22.52657,226040
22.53282,240715
22.53908,326352
22.54533,499351
22.55158,742548
22.55785,854130
22.56410,745075
22.57035,552091
22.57662,409979
22.58287,299641
22.58912,247872
22.59538,210971
22.60163,190386
22.60788,180354
22.61415,173696
22.62040,174551
22.62665,171149
22.63292,178112
22.63917,188186
22.64542,203308
22.65168,213080
22.65793,212158
22.66418,208275
22.67043,205980
22.67670,203781
22.68295,201139
22.68920,206181
22.69547,200967
22.70172,197061
22.70797,194199
22.71423,189034
22.72048,187003
22.72673,184953
22.73300,187750
22.73925,182082
22.74550,181955
22.75177,186872
22.75802,189943
22.76427,199067
22.77053,212806
22.77678,244630
22.78303,345523
22.78930,827027
22.79555,2237579
22.80180,5419119
22.80807,9455282
22.81432,1.33475E+07
22.82057,1.344439E+07
22.82683,9040564
22.83308,4205768
22.83933,1543406
22.84560,647235
22.85185,381903
22.85810,294087
22.86437,257275
22.87062,241439
22.87687,236042
22.88312,230907
22.88938,252516
22.89563,247548
22.90188,214059
22.90815,203317
22.91440,203971
22.92065,193914
22.92692,188015
22.93317,188776
22.93942,192537
22.94568,191767
22.95193,193504
22.95818,194991
22.96445,195259
22.97070,199829
22.97695,213541
22.98322,225759
22.98947,228112
22.99572,216665
23.00198,197640
23.00823,192901
23.01448,182792
23.02075,181686
23.02700,179360
23.03325,177199
23.03952,178541
23.04577,174984
23.05202,180473
23.05828,180436
23.06453,186629
23.07078,198006
23.07705,209072
23.08330,224320
23.08955,225986
23.09582,219722
23.10207,206384
23.10832,195327
23.11457,188837
23.12083,180282
23.12708,175505
23.13333,173539
23.13960,172598
23.14585,172383
23.15210,170388
23.15837,168252
23.16462,171984
23.17087,168698
23.17713,171874
23.18338,171297
23.18963,177869
23.19590,180888
23.20215,181337
23.20840,182777
23.21467,184083
23.22092,180773
23.22717,177544
23.23343,177346
23.23968,177248
23.24593,179154
23.25220,186206
23.25845,185739
23.26470,186928
23.27097,182894
23.27722,181791
23.28347,173845
23.28973,173635
23.29598,173111
23.30223,181772
23.30850,183303
23.31475,184918
23.32100,182660
23.32725,179148
23.33352,181305
23.33977,183144
23.34602,184807
23.35228,186232
23.35853,189877
23.36478,188308
23.37105,187652
23.37730,189284
23.38355,199103
23.38982,212717
23.39607,223941
23.40232,225557
23.40858,219061
23.41483,207274
23.42108,200363
23.42735,191818
23.43360,188219
23.43985,188055
23.44612,186022
23.45237,190094
23.45862,188674
23.46488,191091
23.47113,194228
23.47738,200461
23.48365,212051
23.48990,221218
23.49615,229797
23.50242,255019
23.50867,321247
23.51492,401155
23.52118,508777
23.52743,550403
23.53368,498379
23.53995,386834
23.54620,299926
23.55245,246991
23.55870,224717
23.56497,218292
23.57122,223986
23.57747,229263
23.58373,257871
23.58998,292699
23.59623,351459
23.60250,400318
23.60875,436679
23.61500,424805
23.62127,372623
23.62752,313451
23.63377,274071
23.64003,245691
23.64628,229027
23.65253,218112
23.65880,215417
23.66505,208291
23.67130,206976
23.67757,209871
23.68382,214580
23.69007,216371
23.69633,222225
23.70258,231628
23.70883,233517
23.71510,246403
23.72135,293855
23.72760,397699
23.73387,503476
23.74012,537981
23.74637,503007
23.75263,399266
23.75888,311493
23.76513,262141
23.77138,246917
23.77765,241544
23.78390,235532
23.79015,239641
23.79642,238001
23.80267,240516
23.80892,234469
23.81518,237267
23.82143,244011
23.82768,239310
23.83395,236924
23.84020,239513
23.84645,236603
23.85272,236587
23.85897,235019
23.86522,239282
23.87148,247057
23.87773,262709
23.88398,296208
23.89025,336693
23.89650,365185
23.90275,370015
23.90902,335359
23.91527,303656
23.92152,277432
23.92778,274040
23.93403,272949
23.94028,278658
23.94655,313741
23.95280,435952
23.95905,850023
23.96532,1768443
23.97157,2766780
23.97782,3278512
23.98407,3085236
23.99033,2171791
23.99658,1404223
24.00283,902390
24.00910,661412
24.01535,514304
24.02160,409274
24.02787,340503
24.03412,315056
24.04037,296966
24.04663,294239
24.05288,295591
24.05913,318579
24.06540,354589
24.07165,411311
24.07790,444323
24.08417,457798
24.09042,433644
24.09667,402823
24.10293,368329
24.10918,346291
24.11543,343207
24.12170,345934
24.12795,353699
24.13420,346834
24.14047,337106
24.14672,323981
24.15297,310672
24.15923,314336
24.16548,307305
24.17173,336438
24.17800,381021
24.18425,443995
24.19050,580798
24.19677,849550
24.20302,1611526
24.20927,3494856
24.21552,7452123
24.22178,1.402521E+07
24.22803,2.222113E+07
24.23428,3.014922E+07
24.24055,4.021319E+07
24.24680,4.250902E+07
24.25305,4.270827E+07
24.25932,4.399202E+07
24.26557,4.366864E+07
24.27182,4.191942E+07
24.27808,2.165439E+07
24.28433,6501882
24.29058,3944479
24.29685,3289749
24.30310,3038016
24.30935,2825738
24.31562,2735195
24.32187,2678306
24.32812,2670205
24.33438,2705064
24.34063,2845833
24.34688,2894273
24.35315,2938227
24.35940,3104882
24.36565,3075973
24.37192,3287093
24.37817,3217746
24.38442,3228876
24.39068,3195117
24.39693,2999025
24.40318,2828312
24.40945,2735075
24.41570,2568116
24.42195,2448901
24.42820,2292961
24.43447,2249079
24.44072,2203642
24.44697,2096150
24.45323,1972814
24.45948,1805581
24.46573,1716644
24.47200,1619760
24.47825,1552782
24.48450,1462234
24.49077,1481942
24.49702,1436066
24.50327,1379129
24.50953,1348913
24.51578,1301286
24.52203,1275493
24.52830,1186630
24.53455,1176227
24.54080,1119965
24.54707,1035266
24.55332,1011327
24.55957,944934
24.56583,969111
24.57208,967873
24.57833,981100
24.58460,1026294
24.59085,1057739
24.59710,1012267
24.60337,916918
24.60962,823692
24.61587,727078
24.62213,668321
24.62838,623113
24.63463,586516
24.64088,564869
24.64715,533582
24.65340,518084
24.65965,479929
24.66592,461456
24.67217,444094
24.67842,419717
24.68468,401553
24.69093,388322
24.69718,374972
24.70345,372910
24.70970,352639
24.71595,346218
24.72222,331794
24.72847,323928
24.73472,320893
24.74098,321778
24.74723,302401
24.75348,309403
24.75975,315384
24.76600,337358
24.77225,368687
24.77852,378066
24.78477,357892
24.79102,323838
24.79728,303349
24.80353,281278
24.80978,261701
24.81605,239654
24.82230,239791
24.82855,232060
24.83482,226480
24.84107,222466
24.84732,212576
24.85358,207663
24.85983,232158
24.86608,229592
24.87233,240311
24.87860,248575
24.88485,278501
24.89110,344308
24.89737,396899
24.90362,389837
24.90987,357444
24.91613,328857
24.92238,365580
24.92863,390473
24.93490,394041
24.94115,374980
24.94740,315986
24.95367,279121
24.95992,287858
24.96617,286455
24.97243,281382
24.97868,259033
24.98493,221319
24.99120,200859
24.99745,195722
25.00370,189379
25.00997,198903
25.01622,184393
25.02247,183265
25.02873,186607
25.03498,185866
25.04123,193584
25.04750,197514
25.05375,202494
25.06000,196624
25.06627,186567
25.07252,182964
25.07877,187727
25.08502,199576
25.09128,205088
25.09753,204578
25.10378,205088
25.11005,198539
25.11630,196705
25.12255,189684
25.12882,191288
25.13507,185096
25.14132,182077
25.14758,179341
25.15383,176474
25.16008,176088
25.16635,183007
25.17260,199638
25.17885,235074
25.18512,319582
25.19137,420407
25.19762,480555
25.20388,447949
25.21013,377514
25.21638,283945
25.22265,236597
25.22890,199818
25.23515,192627
25.24142,188342
25.24767,182178
25.25392,176800
25.26018,187976
25.26643,162825
25.27268,183372
25.27895,209491
25.28520,231812
25.29145,289337
25.29770,353597
25.30397,387891
25.31022,365506
25.31647,322197
25.32273,257737
25.32898,225586
25.33523,213694
25.34150,204986
25.34775,208703
25.35400,194555
25.36027,176532
25.36652,178309
25.37277,164875
25.37903,162712
25.38528,155708
25.39153,159642
25.39780,169126
25.40405,183841
25.41030,200002
25.41657,213847
25.42282,206290
25.42907,191886
25.43533,179205
25.44158,173133
25.44783,163316
25.45410,162304
25.46035,159418
25.46660,156827
25.47287,150020
25.47912,147987
25.48537,159167
25.49163,197147
25.49788,265517
25.50413,368449
25.51040,419575
25.51665,412363
25.52290,365113
25.52915,313709
25.53542,300710
25.54167,341048
25.54792,410153
25.55418,429222
25.56043,378181
25.56668,289305
25.57295,226810
25.57920,184574
25.58545,165736
25.59172,150321
25.59797,152044
25.60422,157833
25.61048,160024
25.61673,157582
25.62298,150981
25.62925,140797
25.63550,141911
25.64175,137076
25.64802,133743
25.65427,131305
25.66052,131394
25.66678,125636
25.67303,126017
25.67928,129083
25.68555,132267
25.69180,134025
25.69805,128403
25.70432,128908
25.71057,128303
25.71682,121153
25.72308,123079
25.72933,124177
25.73558,127870
25.74183,132811
25.74810,137110
25.75435,133406
25.76060,140909
25.76687,131377
25.77312,130940
25.77937,126758
25.78563,123156
25.79188,126401
25.79813,126499
25.80440,119230
25.81065,119799
25.81690,117383
25.82317,121061
25.82942,118289
25.83567,115821
25.84193,116771
25.84818,115780
25.85443,121533
25.86070,121976
25.86695,123225
25.87320,122513
25.87947,124959
25.88572,122444
25.89197,118927
25.89823,114170
25.90448,114301
25.91073,120676
25.91700,116568
25.92325,117828
25.92950,119890
25.93577,123455
25.94202,127580
25.94827,127044
25.95453,130309
25.96078,123425
25.96703,114748
25.97328,118169
25.97955,115813
25.98580,114146
25.99205,114663
25.99832,116568
26.00457,120529
26.01082,117040
26.01708,123625
26.02333,119813
26.02958,121500
26.03585,121460
26.04210,126575
26.04835,127590
26.05462,127108
26.06087,128231
26.06712,125683
26.07338,123851
26.07963,123235
26.08588,119624
26.09215,117527
26.09840,116156
26.10465,116197
26.11092,117868
26.11717,116450
26.12342,114008
26.12968,118136
26.13593,120122
26.14218,118104
26.14845,118405
26.15470,115611
26.16095,121761
26.16722,120097
26.17347,118535
26.17972,121243
26.18597,121159
26.19223,125387
26.19848,116761
26.20473,117445
26.21100,121263
26.21725,118544
26.22350,116150
26.22977,123129
26.23602,120817
26.24227,119486
26.24853,117705
26.25478,117602
26.26103,120668
26.26730,119264
26.27355,118341
26.27980,120941
26.28607,126003
26.29232,121033
26.29857,118179
26.30483,118802
26.31108,121348
26.31733,120579
26.32360,120518
26.32985,120958
26.33610,119001
26.34237,126171
26.34862,127959
26.35487,132153
26.36113,133040
26.36738,139912
26.37363,141728
26.37990,135972
26.38615,135804
26.39240,134667
26.39867,132856
26.40492,129287
26.41117,127927
26.41742,135828
26.42368,136510
26.42993,138978
26.43618,135728
26.44245,130400
26.44870,129014
26.45495,127971
26.46122,130001
26.46747,130926
26.47372,130302
26.47998,138617
26.48623,134715
26.49248,139397
26.49875,136506
26.50500,135928
26.51125,134476
26.51752,136467
26.52377,143750
26.53002,151376
26.53628,169968
26.54253,167250
26.54878,164436
26.55505,153209
26.56130,146849
26.56755,140618
26.57382,144439
26.58007,137338
26.58632,137985
26.59258,136134
26.59883,141322
26.60508,146938
26.61135,162093
26.61760,170075
26.62385,186513
26.63010,173869
26.63637,168739
26.64262,152630
26.64887,153528
26.65513,160068
26.66138,168165
26.66763,194361
26.67390,211859
26.68015,218083
26.68640,205649
26.69267,206521
26.69892,212242
26.70517,224236
26.71143,227990
26.71768,221561
26.72393,203122
26.73020,176993
26.73645,168639
26.74270,164713
26.74897,170528
26.75522,188710
26.76147,231026
26.76773,293299
26.77398,365693
26.78023,383357
26.78650,347784
26.79275,300095
26.79900,260574
26.80527,250578
26.81152,235229
26.81777,212893
26.82403,200266
26.83028,192152
26.83653,193430
26.84280,203011
26.84905,202509
26.85530,193264
26.86155,192280
26.86782,193069
26.87407,204673
26.88032,226986
26.88658,274757
26.89283,334388
26.89908,420570
26.90535,665952
26.91160,1427810
26.91785,3017523
26.92412,6480130
26.93037,1.159494E+07
26.93662,1.770991E+07
26.94288,2.213688E+07
26.94913,2.184102E+07
26.95538,1.469161E+07
26.96165,6889881
26.96790,3164571
26.97415,1769702
26.98042,1118077
26.98667,738132
26.99292,517910
26.99918,405866
27.00543,375746
27.01168,427637
27.01795,604459
27.02420,982326
27.03045,1326060
27.03672,1382177
27.04297,1139735
27.04922,787679
27.05548,553647
27.06173,455185
27.06798,399507
27.07423,389773
27.08050,360210
27.08675,316950
27.09300,286231
27.09927,266647
27.10552,258308
27.11177,245946
27.11803,243555
27.12428,260874
27.13053,311290
27.13680,391096
27.14305,458718
27.14930,488507
27.15557,435309
27.16182,366731
27.16807,297706
27.17433,279935
27.18058,279892
27.18683,278871
27.19310,266670
27.19935,255181
27.20560,242410
27.21187,244567
27.21812,245763
27.22437,234420
27.23063,235940
27.23688,228461
27.24313,232079
27.24940,236271
27.25565,245725
27.26190,259739
27.26817,255759
27.27442,241328
27.28067,225093
27.28692,228734
27.29318,220819
27.29943,220329
27.30568,222855
27.31195,223724
27.31820,233102
27.32445,234032
27.33072,229208
27.33697,227019
27.34322,226178
27.34948,225812
27.35573,232689
27.36198,239267
27.36825,243204
27.37450,244743
27.38075,239292
27.38702,233396
27.39327,227622
27.39952,236286
27.40578,253426
27.41203,278034
27.41828,298413
27.42455,308668
27.43080,288425
27.43705,267716
27.44332,246126
27.44957,232897
27.45582,228427
27.46208,220319
27.46833,215296
27.47458,218898
27.48085,218373
27.48710,212645
27.49335,221365
27.49962,217106
27.50587,216462
27.51212,204416
27.51837,205217
27.52463,200041
27.53088,205817
27.53713,213755
27.54340,218396
27.54965,212651
27.55590,214037
27.56217,208013
27.56842,209493
27.57467,208193
27.58093,205275
27.58718,200632
27.59343,210811
27.59970,207160
27.60595,209653
27.61220,204966
27.61847,214711
27.62472,216356
27.63097,208413
27.63723,209675
27.64348,213488
27.64973,211433
27.65600,209471
27.66225,211830
27.66850,208333
27.67477,213757
27.68102,211933
27.68727,217347
27.69353,221319
27.69978,215527
27.70603,214748
27.71230,226439
27.71855,226384
27.72480,234347
27.73105,240112
27.73732,237172
27.74357,238085
27.74982,232551
27.75608,229116
27.76233,234391
27.76858,236881
27.77485,229675
27.78110,228891
27.78735,222409
27.79362,217225
27.79987,225021
27.80612,218486
27.81238,220057
27.81863,217362
27.82488,225846
27.83115,223232
27.83740,216596
27.84365,219320
27.84992,230851
27.85617,240054
27.86242,258458
27.86868,276055
27.87493,270447
27.88118,264391
27.88745,262505
27.89370,251336
27.89995,235358
27.90622,241627
27.91247,228001
27.91872,224025
27.92498,226825
27.93123,234613
27.93748,232518
27.94373,225565
27.95000,236617
27.95625,230085
27.96250,228953
27.96877,231837
27.97502,230651
27.98127,239856
27.98753,239253
27.99378,237519
28.00003,247841
28.00630,242799
28.01255,239272
28.01880,239117
28.02507,237513
28.03132,233111
28.03757,240187
28.04383,229757
28.05008,233276
28.05633,230723
28.06260,238120
28.06885,232419
28.07510,237954
28.08137,227838
28.08762,238032
28.09387,229969
28.10013,237859
28.10638,238427
28.11263,231509
28.11890,233071
28.12515,235278
28.13140,244165
28.13767,242211
28.14392,237162
28.15017,234713
28.15643,229791
28.16268,233335
28.16893,238323
28.17518,233861
28.18145,237759
28.18770,244286
28.19395,239238
28.20022,231681
28.20647,234077
28.21272,232175
28.21898,242975
28.22523,244979
28.23148,245853
28.23775,238091
28.24400,237182
28.25025,239493
28.25652,246895
28.26277,233806
28.26902,236159
28.27528,243608
28.28153,250492
28.28778,245933
28.29405,245109
28.30030,255031
28.30655,251182
28.31282,255764
28.31907,266138
28.32532,266884
28.33158,262050
28.33783,268912
28.34408,279279
28.35035,285264
28.35660,284967
28.36285,293944
28.36912,291200
28.37537,306527
28.38162,311339
28.38787,315166
28.39413,307203
28.40038,317510
28.40663,314774
28.41290,329649
28.41915,331322
28.42540,339098
28.43167,319296
28.43792,313348
28.44417,305512
28.45043,303784
28.45668,314026
28.46293,298512
28.46920,301038
28.47545,295793
28.48170,292008
28.48797,294805
28.49422,294811
28.50047,279864
28.50673,278464
28.51298,279820
28.51923,276119
28.52550,275447
28.53175,267496
28.53800,269479
28.54427,258313
28.55052,265555
28.55677,262030
28.56303,251189
28.56928,262148
28.57553,253153
28.58180,249198
28.58805,255131
28.59430,258550
28.60055,249028
28.60682,254696
28.61307,247490
28.61932,257246
28.62558,249830
28.63183,253281
28.63808,245847
28.64435,245809
28.65060,246184
28.65685,246636
28.66312,245297
28.66937,247360
28.67562,245663
28.68188,252110
28.68813,238871
28.69438,255183
28.70065,242529
28.70690,242839
28.71315,240818
28.71942,250255
28.72567,243034
28.73192,242872
28.73818,253343
28.74443,248696
28.75068,242757
28.75695,241209
28.76320,237761
28.76945,240402
28.77572,241010
28.78197,236980
28.78822,233735
28.79448,240758
28.80073,248531
28.80698,235687
28.81325,242325
28.81950,247841
28.82575,247646
28.83200,234657
28.83827,237888
28.84452,239810
28.85077,235865
28.85703,236966
28.86328,246613
28.86953,245478
28.87580,237960
28.88205,238654
28.88830,242571
28.89457,244646
28.90082,244261
28.90707,243407
28.91333,242035
28.91958,233314
28.92583,242525
28.93210,244500
28.93835,238868
28.94460,229904
28.95087,237124
28.95712,231070
28.96337,234162
28.96963,237702
28.97588,233080
28.98213,234060
28.98840,231248
28.99465,242565
29.00090,238085
29.00717,235506
29.01342,230404
29.01967,244513
29.02593,234478
29.03218,232474
29.03843,241550
29.04468,239205
29.05095,232892
29.05720,230886
29.06345,229957
29.06972,233079
29.07597,237658
29.08222,229942
29.08848,235835
29.09473,243566
29.10098,239706
29.10725,233923
29.11350,231435
29.11975,240560
29.12602,230993
29.13227,243070
29.13852,239556
29.14478,230201
29.15103,230911
29.15728,227320
29.16355,230553
29.16980,230277
29.17605,240454
29.18232,237343
29.18857,227757
29.19482,237967
29.20108,230514
29.20733,227720
29.21358,234388
29.21985,231316
29.22610,238529
29.23235,250746
29.23862,251467
29.24487,265831
29.25112,262764
29.25738,258813
29.26363,262496
29.26988,254128
29.27613,252817
29.28240,240715
29.28865,242953
29.29490,232960
29.30117,242162
29.30742,235697
29.31367,231180
29.31993,230705
29.32618,236088
29.33243,237762
29.33870,229712
29.34495,230026
29.35120,238052
29.35747,241478
29.36372,237608
29.36997,237351
29.37623,231996
29.38248,231192
29.38873,239124
29.39500,238382
29.40125,228948
29.40750,224078
29.41377,234269
29.42002,237570
29.42627,229365
29.43253,228940
29.43878,227155
29.44503,229651
29.45130,226414
29.45755,235199
29.46380,235047
29.47007,238803
29.47632,233669
29.48257,237471
29.48883,224313
29.49508,233197
29.50133,225386
29.50758,228893
29.51385,233074
29.52010,234510
29.52635,226243
29.53262,227203
29.53887,230141
29.54512,238704
29.55138,227100
29.55763,233429
29.56388,224558
29.57015,225737
29.57640,223369
29.58265,228181
29.58892,232966
29.59517,236695
29.60142,223177
29.60768,237263
29.61393,224654
29.62018,226834
29.62645,235750
29.63270,230028
29.63895,225934
29.64522,227894
29.65147,234531
29.65772,227147
29.66398,226885
29.67023,231283
29.67648,222400
29.68275,222608
29.68900,232867
29.69525,220680
29.70152,224634
29.70777,223749
29.71402,233003
29.72027,232133
29.72653,229382
29.73278,237011
29.73903,221463
29.74530,227976
29.75155,222009
29.75780,218644
29.76407,230938
29.77032,226252
29.77657,222498
29.78283,225826
29.78908,223047
29.79533,223102
29.80160,217199
29.80785,224462
29.81410,218526
29.82037,229977
29.82662,230657
29.83287,226257
29.83913,229300
29.84538,233322
29.85163,228094
29.85790,227252
29.86415,223043
29.87040,220183
29.87667,220851
29.88292,228271
29.88917,224998
29.89543,223130
29.90168,223708
29.90793,232534
29.91420,227040
29.92045,221352
29.92670,221972
29.93295,221210
29.93922,231170
29.94547,224823
29.95172,227034
29.95798,219550
29.96423,225429
29.97048,222005
29.97675,221038
29.98300,214892
29.98925,221087
29.99552,223873
30.00177,229479
30.00802,223175
30.01428,219560
30.02053,226572
30.02678,215094
30.03305,219595
30.03930,217619
30.04555,218111
30.05182,226646
30.05807,230348
30.06432,228264
30.07058,222678
30.07683,217446
30.08308,217802
30.08935,225347
30.09560,219431
30.10185,216164
30.10812,219060
30.11437,215932
30.12062,221612
30.12688,213778
30.13313,217481
30.13938,217739
30.14565,221330
30.15190,224733
30.15815,223335
30.16440,226648
30.17067,216798
30.17692,225251
30.18317,220807
30.18943,216747
30.19568,214015
30.20193,213252
30.20820,220718
30.21445,213774
30.22070,216435
30.22697,217645
30.23322,219206
30.23947,216626
30.24573,220340
30.25198,218120
30.25823,220209
30.26450,217163
30.27075,214093
30.27700,215322
30.28327,213071
30.28952,214272
30.29577,214814
30.30203,221035
30.30828,220453
30.31453,222397
30.32080,216902
30.32705,219501
30.33330,212213
30.33957,212663
30.34582,218076
30.35207,220826
30.35833,219483
30.36458,219969
30.37083,219926
30.37708,207462
30.38335,209417
30.38960,218569
30.39585,219140
30.40212,216502
30.40837,219044
30.41462,212216
30.42088,217628
30.42713,220586
30.43338,210980
30.43965,211992
30.44590,218122
30.45215,216335
30.45842,212731
30.46467,209417
30.47092,220539
30.47718,210177
30.48343,212713
30.48968,212215
30.49595,209743
30.50220,211461
30.50845,210543
30.51472,216828
30.52097,215463
30.52722,211519
30.53348,210598
30.53973,207626
30.54598,211218
30.55225,208725
30.55850,210456
30.56475,213340
30.57102,208949
30.57727,214329
30.58352,211220
30.58977,212568
30.59603,214336
30.60228,212309
30.60853,209980
30.61480,210796
30.62105,206588
30.62730,210248
30.63357,207459
30.63982,206150
30.64607,209313
30.65233,210470
30.65858,218862
30.66483,215752
30.67110,217677
30.67735,207178
30.68360,207133
30.68987,219274
30.69612,216520
30.70237,208465
30.70863,212412
30.71488,217281
30.72113,213791
30.72740,209230
30.73365,216273
30.73990,218614
30.74617,211351
30.75242,215505
30.75867,209375
30.76493,207530
30.77118,216090
30.77743,216119
30.78370,214825
30.78995,209152
30.79620,212874
30.80247,209439
30.80872,207612
30.81497,207171
30.82122,202990
30.82748,206767
30.83373,210374
30.83998,207421
30.84625,202943
30.85250,202601
30.85875,202009
30.86502,206136
30.87127,206426
30.87752,206707
30.88378,205861
30.89003,212146
30.89628,211432
30.90255,204613
30.90880,204985
30.91505,213306
30.92132,205321
30.92757,203934
30.93382,214175
30.94008,208604
30.94633,207370
30.95258,201723
30.95885,208846
30.96510,211406
30.97135,205927
30.97762,212865
30.98387,205613
30.99012,213998
30.99638,210861
31.00263,207636
31.00888,219251
31.01515,215710
31.02140,223658
31.02765,216605
31.03390,222061
31.04017,217644
31.04642,216990
31.05267,216572
31.05893,207075
31.06518,214222
31.07143,207641
31.07770,209379
31.08395,208984
31.09020,201655
31.09647,205886
31.10272,209519
31.10897,205881
31.11523,205103
31.12148,203880
31.12773,214219
31.13400,203793
31.14025,203861
31.14650,199707
31.15277,202544
31.15902,205853
31.16527,208183
31.17153,201520
31.17778,210777
31.18403,201597
31.19030,201677
31.19655,204142
31.20280,196674
31.20907,198633
31.21532,212153
31.22157,209455
31.22783,203569
31.23408,204635
31.24033,204003
31.24660,197599
31.25285,197385
31.25910,205055
31.26535,200963
31.27162,208579
31.27787,207019
31.28412,199741
31.29038,206541
31.29663,199961
31.30288,203704
31.30915,203642
31.31540,206997
31.32165,207227
31.32792,198354
31.33417,200620
31.34042,209028
31.34668,198167
31.35293,205393
31.35918,198566
31.36545,201722
31.37170,199246
31.37795,204623
31.38422,212228
31.39047,202808
31.39672,201666
31.40298,203588
31.40923,202661
31.41548,203099
31.42175,205526
31.42800,206349
31.43425,210007
31.44052,209960
31.44677,206809
31.45302,204173
31.45928,197006
31.46553,208114
31.47178,201051
31.47803,205799
31.48430,202312
31.49055,201387
31.49680,201521
31.50307,207375
31.50932,206746
31.51557,196556
31.52183,200270
31.52808,196894
31.53433,199415
31.54060,199825
31.54685,198990
31.55310,198414
31.55937,206729
31.56562,204222
31.57187,206754
31.57813,194835
31.58438,198511
31.59063,196570
31.59690,195420
31.60315,206203
31.60940,205035
31.61567,201100
31.62192,192485
31.62817,194061
31.63443,195898
31.64068,202955
31.64693,194939
31.65320,197960
31.65945,195865
31.66570,201191
31.67197,195050
31.67822,202466
31.68447,194506
31.69073,193732
31.69698,193481
31.70323,194908
31.70948,191166
31.71575,201381
31.72200,193563
31.72825,202055
31.73452,192418
31.74077,195244
31.74702,194052
31.75328,202657
31.75953,201283
31.76578,200859
31.77205,194645
31.77830,194274
31.78455,197446
31.79082,191803
31.79707,196312
31.80332,200490
31.80958,191126
31.81583,197897
31.82208,193356
31.82835,199362
31.83460,191112
31.84085,200269
31.84712,198453
31.85337,189639
31.85962,195575
31.86588,192829
31.87213,192247
31.87838,190639
31.88465,192687
31.89090,189422
31.89715,199155
31.90342,194019
31.90967,197060
31.91592,196794
31.92217,196687
31.92843,199948
31.93468,193557
31.94093,198560
31.94720,194011
31.95345,193770
31.95970,199872
31.96597,198414
31.97222,195390
31.97847,190548
31.98473,190498
31.99098,186275
31.99723,196041
32.00350,190464
32.00975,193840
32.01600,189690
32.02227,192844
32.02852,195742
32.03477,189230
32.04103,195392
32.04728,189658
32.05353,195939
32.05980,189318
32.06605,188884
32.07230,190873
32.07857,198233
32.08482,190370
32.09107,195997
32.09733,193954
32.10358,190287
32.10983,193041
32.11610,196948
32.12235,191701
32.12860,194672
32.13487,193996
32.14112,193831
32.14737,189906
32.15362,187413
32.15988,196210
32.16613,193596
32.17238,190750
32.17865,188076
32.18490,191734
32.19115,186548
32.19742,194298
32.20367,183520
32.20992,195424
32.21618,192584
32.22243,195645
32.22868,187659
32.23495,195309
32.24120,185323
32.24745,186938
32.25372,187061
32.25997,192190
32.26622,186704
32.27248,188375
32.27873,194530
32.28498,183884
32.29125,184372
32.29750,186303
32.30375,183922
32.31002,194485
32.31627,187171
32.32252,186981
32.32878,188620
32.33503,193041
32.34128,189738
32.34755,187591
32.35380,187080
32.36005,192894
32.36630,185581
32.37257,187894
32.37882,185035
32.38507,186968
32.39133,188281
32.39758,188108
32.40383,184170
32.41010,189588
32.41635,186411
32.42260,187456
32.42887,185564
32.43512,189072
32.44137,186073
32.44763,184022
32.45388,194173
32.46013,192676
32.46640,182030
32.47265,188792
32.47890,193482
32.48517,187688
32.49142,185043
32.49767,183900
32.50393,185491
32.51018,196253
32.51643,187606
32.52270,191172
32.52895,188004
32.53520,190112
32.54147,184612
32.54772,186215
32.55397,190322
32.56023,186873
32.56648,183449
32.57273,185676
32.57898,186401
32.58525,191389
32.59150,182326
32.59775,183505
32.60402,183644
32.61027,182670
32.61652,185097
32.62278,187607
32.62903,186358
32.63528,193643
32.64155,188349
32.64780,184762
32.65405,182953
32.66032,177374
32.66657,190171
32.67282,183723
32.67908,181048
32.68533,183043
32.69158,189686
32.69785,182248
32.70410,182499
32.71035,181165
32.71662,182260
32.72287,184667
32.72912,187885
32.73538,189682
32.74163,180857
32.74788,189151
32.75415,184672
32.76040,188918
32.76665,188949
32.77292,188884
32.77917,178167
32.78542,186559
32.79168,179222
32.79793,178714
32.80418,188280
32.81043,183038
32.81670,180395
32.82295,185836
32.82920,181042
32.83547,180176
32.84172,181662
32.84797,177298
32.85423,181786
32.86048,186451
32.86673,183503
32.87300,187206
32.87925,179501
32.88550,178619
32.89177,185552
32.89802,178353
32.90427,176330
32.91053,186987
32.91678,181699
32.92303,178716
32.92930,182983
32.93555,179170
32.94180,180712
32.94807,178244
32.95432,183372
32.96057,184376
32.96683,183077
32.97308,182319
32.97933,180212
32.98560,184858
32.99185,181362
32.99810,187148
33.00437,180699
33.01062,181500
33.01687,178793
33.02312,182698
33.02938,176513
33.03563,177643
33.04188,178779
33.04815,182413
33.05440,178188
33.06065,184445
33.06692,180784
33.07317,178256
33.07942,186604
33.08568,178959
33.09193,182268
33.09818,183995
33.10445,171162
33.11070,177842
33.11695,175989
33.12322,184558
33.12947,178136
33.13572,179217
33.14198,178502
33.14823,182625
33.15448,181102
33.16075,179865
33.16700,187920
33.17325,193083
33.17952,189790
33.18577,191062
33.19202,187873
33.19828,192968
33.20453,193122
33.21078,187827
33.21705,180985
33.22330,184239
33.22955,181697
33.23580,181433
33.24207,179269
33.24832,176660
33.25457,178940
33.26083,183339
33.26708,177677
33.27333,181822
33.27960,173951
33.28585,181697
33.29210,183128
33.29837,175127
33.30462,174982
33.31087,176338
33.31713,181883
33.32338,175941
33.32963,178567
33.33590,180188
33.34215,173794
33.34840,181232
33.35467,181753
33.36092,184772
33.36717,177257
33.37343,179325
33.37968,178696
33.38593,178329
33.39220,180664
33.39845,177226
33.40470,184319
33.41097,180837
33.41722,176924
33.42347,177138
33.42973,174036
33.43598,176364
33.44223,175875
33.44850,172757
33.45475,174579
33.46100,177904
33.46725,175618
33.47352,175789
33.47977,175812
33.48602,175899
33.49228,175988
33.49853,171364
33.50478,170476
33.51105,172612
33.51730,175801
33.52355,173371
33.52982,173491
33.53607,178087
33.54232,177298
33.54858,178618
33.55483,169583
33.56108,171755
33.56735,177310
33.57360,171147
33.57985,176283
33.58612,171040
33.59237,176202
33.59862,171389
33.60488,171341
33.61113,172181
33.61738,176178
33.62365,176815
33.62990,169271
33.63615,176308
33.64242,172129
33.64867,176857
33.65492,175461
33.66118,179792
33.66743,170815
33.67368,170432
33.67993,177923
33.68620,170929
33.69245,170139
33.69870,169339
33.70497,169924
33.71122,178288
33.71747,166648
33.72373,167894
33.72998,173920
33.73623,172147
33.74250,172511
33.74875,173770
33.75500,166957
33.76127,170800
33.76752,168009
33.77377,171677
33.78003,175692
33.78628,171971
33.79253,170199
33.79880,174148
33.80505,170589
33.81130,170177
33.81757,168247
33.82382,175282
33.83007,168100
33.83633,170929
33.84258,170280
33.84883,167368
33.85510,169969
33.86135,169511
33.86760,176964
33.87387,169647
33.88012,166680
33.88637,172685
33.89263,167679
33.89888,170754
33.90513,168794
33.91138,174987
33.91765,168113
33.92390,174547
33.93015,170365
33.93642,173675
33.94267,174913
33.94892,167610
33.95518,166374
33.96143,171932
33.96768,169918
33.97395,174271
33.98020,172306
33.98645,169853
33.99272,167195
33.99897,171152
34.00522,165778
34.01148,169417
34.01773,169753
34.02398,168642
34.03025,167999
34.03650,164519
34.04275,165159
34.04902,173600
34.05527,165570
34.06152,175697
34.06778,163575
34.07403,171928
34.08028,170236
34.08655,160968
34.09280,166752
34.09905,171817
34.10532,169694
34.11157,165127
34.11782,168407
34.12407,165354
34.13033,165081
34.13658,165637
34.14283,172739
34.14910,170328
34.15535,166185
34.16160,163130
34.16787,165968
34.17412,168979
34.18037,165597
34.18663,169064
34.19288,163607
34.19913,168275
34.20540,161259
34.21165,162778
34.21790,165996
34.22417,168154
34.23042,172061
34.23667,169929
34.24293,167167
34.24918,164333
34.25543,163322
34.26170,168574
34.26795,165017
34.27420,168241
34.28047,160986
34.28672,168537
34.29297,170089
34.29923,164366
34.30548,163860
34.31173,166608
34.31800,167070
34.32425,168176
34.33050,163601
34.33677,166591
34.34302,164780
34.34927,172107
34.35552,161944
34.36178,162310
34.36803,169443
34.37428,164292
34.38055,163843
34.38680,169689
34.39305,169537
34.39932,162164
34.40557,164747
34.41182,164362
34.41808,166333
34.42433,161225
34.43058,161364
34.43685,159761
34.44310,166586
34.44935,161816
34.45562,162798
34.46187,164455
34.46812,163696
34.47438,164727
34.48063,165492
34.48688,162180
34.49315,158476
34.49940,163950
34.50565,168984
34.51192,158631
34.51817,161745
34.52442,166780
34.53068,161823
34.53693,161005
34.54318,168719
34.54945,161653
34.55570,166641
34.56195,161622
34.56820,162761
34.57447,162954
34.58072,164128
34.58697,168001
34.59323,163796
34.59948,161961
34.60573,159134
34.61200,161287
34.61825,168326
34.62450,164561
34.63077,167361
34.63702,166739
34.64327,161873
34.64953,161107
34.65578,159569
34.66203,164054
34.66830,163224
34.67455,164521
34.68080,164974
34.68707,160259
34.69332,158510
34.69957,160498
34.70583,158199
34.71208,160168
34.71833,162776
34.72460,164656
34.73085,161169
34.73710,163835
34.74337,159711
34.74962,159378
34.75587,160560
34.76213,158067
34.76838,160551
34.77463,159071
34.78090,157889
34.78715,161625
34.79340,165104
34.79965,155466
34.80592,161262
34.81217,160764
34.81842,159943
34.82468,164906
34.83093,160062
34.83718,156454
34.84345,166831
34.84970,159211
34.85595,160847
34.86222,162835
34.86847,165101
34.87472,166385
34.88098,157057
34.88723,159464
34.89348,159257
34.89975,157455
34.90600,159181
34.91225,161830
34.91852,161985
34.92477,156301
34.93102,161676
34.93728,157366
34.94353,162085
34.94978,164952
34.95605,161387
34.96230,159569
34.96855,156410
34.97482,158992
34.98107,162265
34.98732,158963
34.99358,165158
34.99983,164960
35.00608,158035
35.01233,155780
35.01860,157168
35.02485,157320
35.03110,157354
35.03737,154361
35.04362,156810
35.04987,155417
35.05613,156396
35.06238,165341
35.06863,157409
35.07490,157631
35.08115,158629
35.08740,160834
35.09367,157898
35.09992,156510
35.10617,157418
35.11243,164127
35.11868,154914
35.12493,159017
35.13120,161079
35.13745,157880
35.14370,152577
35.14997,156348
35.15622,157526
35.16247,161272
35.16873,156609
35.17498,159383
35.18123,163260
35.18750,159643
35.19375,155588
35.20000,155879
35.20627,154974
35.21252,153765
35.21877,160133
35.22502,160843
35.23128,156038
35.23753,153343
35.24378,160468
35.25005,160840
35.25630,159387
35.26255,158823
35.26882,154519
35.27507,154734
35.28132,158898
35.28758,150478
35.29383,153951
35.30008,154356
35.30635,157388
35.31260,155189
35.31885,158666
35.32512,157551
35.33137,152491
35.33762,156668
35.34388,159945
35.35013,158574
35.35638,156651
35.36265,159122
35.36890,156266
35.37515,155204
35.38142,158885
35.38767,156728
35.39392,156991
35.40018,160310
35.40643,153320
35.41268,155664
35.41895,153210
35.42520,155165
35.43145,154681
35.43772,154979
35.44397,159973
35.45022,151155
35.45647,155720
35.46273,151800
35.46898,153603
35.47523,160075
35.48150,154337
35.48775,150199
35.49400,156004
35.50027,153601
35.50652,153954
35.51277,155435
35.51903,159457
35.52528,158298
35.53153,153043
35.53780,156803
35.54405,157299
35.55030,154905
35.55657,152096
35.56282,153708
35.56907,152456
35.57533,156661
35.58158,156965
35.58783,156585
35.59410,147702
35.60035,152627
35.60660,154292
35.61287,153620
35.61912,157880
35.62537,155712
35.63163,155079
35.63788,156878
35.64413,155356
35.65040,153884
35.65665,152625
35.66290,158656
35.66915,153352
35.67542,152753
35.68167,153580
35.68792,150952
35.69418,150533
35.70043,156480
35.70668,153539
35.71295,156459
35.71920,151639
35.72545,150939
35.73172,150045
35.73797,151234
35.74422,155732
35.75048,156035
35.75673,148241
35.76298,153873
35.76925,149125
35.77550,154115
35.78175,156118
35.78802,148316
35.79427,148571
35.80052,147457
35.80678,149765
35.81303,149620
35.81928,152326
35.82555,146557
35.83180,153456
35.83805,154802
35.84432,149015
35.85057,149472
35.85682,150098
35.86308,150839
35.86933,154116
35.87558,148293
35.88183,151656
35.88810,159764
35.89435,155118
35.90060,147294
35.90687,152808
35.91312,153622
35.91937,152723
35.92563,153835
35.93188,147748
35.93813,149358
35.94440,151559
35.95065,155903
35.95690,151886
35.96317,148682
35.96942,151273
35.97567,147792
35.98193,146592
35.98818,146034
35.99443,150117
36.00070,147984
36.00695,152513
36.01320,147129
36.01947,155622
36.02572,147458
36.03197,152266
36.03823,154345
36.04448,146726
36.05073,153201
36.05700,150885
36.06325,151228
36.06950,155596
36.07577,151210
36.08202,146310
36.08827,153166
36.09453,146092
36.10078,152253
36.10703,146792
36.11328,147129
36.11955,151637
36.12580,150402
36.13205,149887
36.13832,147115
36.14457,147436
36.15082,149018
36.15708,149566
36.16333,153221
36.16958,146846
36.17585,152749
36.18210,150897
36.18835,146764
36.19462,146661
36.20087,145877
36.20712,151115
36.21338,151492
36.21963,147217
36.22588,148774
36.23215,151133
36.23840,147817
36.24465,149586
36.25092,151905
36.25717,154540
36.26342,162127
36.26968,162943
36.27593,171074
36.28218,172781
36.28845,185726
36.29470,189117
36.30095,203694
36.30722,201015
36.31347,210232
36.31972,217262
36.32597,226948
36.33223,228440
36.33848,228946
36.34473,236166
36.35100,232414
36.35725,226377
36.36350,227611
36.36977,218937
36.37602,221596
36.38227,210119
36.38853,201539
36.39478,195449
36.40103,192652
36.40730,182169
36.41355,174106
36.41980,170244
36.42607,165211
36.43232,160880
36.43857,166559
36.44483,163361
36.45108,159043
36.45733,158579
36.46360,157815
36.46985,154410
36.47610,154009
36.48237,155386
36.48862,152811
36.49487,159663
36.50113,150356
36.50738,151231
36.51363,159685
36.51990,155154
36.52615,150485
36.53240,150912
36.53867,150374
36.54492,151332
36.55117,151077
36.55742,151961
36.56368,152403
36.56993,152544
36.57618,146821
36.58245,146376
36.58870,151474
36.59495,146839
36.60122,147516
36.60747,150123
36.61372,152369
36.61998,148904
36.62623,155767
36.63248,150861
36.63875,149600
36.64500,146039
36.65125,147855
36.65752,154300
36.66377,148847
36.67002,149599
36.67628,152008
36.68253,150432
36.68878,150819
36.69505,151017
36.70130,148156
36.70755,150912
36.71382,146813
36.72007,142509
36.72632,146959
36.73258,148968
36.73883,147843
36.74508,145438
36.75135,148605
36.75760,143827
36.76385,145050
36.77010,147000
36.77637,148875
36.78262,151507
36.78887,143151
36.79513,151720
36.80138,149702
36.80763,145068
36.81390,146694
36.82015,143830
36.82640,141539
36.83267,150407
36.83892,141966
36.84517,146998
36.85143,146883
36.85768,144484
36.86393,144542
36.87020,147681
36.87645,142633
36.88270,147077
36.88897,150412
36.89522,151623
36.90147,146483
36.90773,144838
36.91398,143314
36.92023,143440
36.92650,149525
36.93275,142896
36.93900,144134
36.94527,143089
36.95152,142846
36.95777,139950
36.96403,145082
36.97028,142728
36.97653,148633
36.98280,141176
36.98905,148907
36.99530,142452
37.00155,142116
37.00782,143812
37.01407,146354
37.02032,141269
37.02658,142962
37.03283,141980
37.03908,146684
37.04535,145621
37.05160,144771
37.05785,145992
37.06412,143457
37.07037,143017
37.07662,143805
37.08288,142454
37.08913,143336
37.09538,145575
37.10165,145993
37.10790,142551
37.11415,143341
37.12042,145690
37.12667,144121
37.13292,145459
37.13918,141691
37.14543,147495
37.15168,149300
37.15795,141244
37.16420,146104
37.17045,142944
37.17672,139956
37.18297,147117
37.18922,140382
37.19548,143740
37.20173,144318
37.20798,144131
37.21423,139718
37.22050,140156
37.22675,139130
37.23300,138161
37.23927,141421
37.24552,138421
37.25177,139279
37.25803,140666
37.26428,139701
37.27053,141066
37.27680,146161
37.28305,142995
37.28930,144887
37.29557,141882
37.30182,143544
37.30807,140019
37.31433,137018
37.32058,144971
37.32683,142745
37.33310,142651
37.33935,143515
37.34560,144990
37.35187,140602
37.35812,144390
37.36437,137839
37.37063,144993
37.37688,140725
37.38313,140643
37.38940,142846
37.39565,137720
37.40190,139358
37.40817,139546
37.41442,139306
37.42067,139003
37.42693,138056
37.43318,144960
37.43943,144912
37.44568,141574
37.45195,141255
37.45820,141376
37.46445,139775
37.47072,138558
37.47697,137441
37.48322,139296
37.48948,141756
