D:\MassHunter\GCMS\1\data\metastasis_lineages_3replicates_3runs_10302020\L_plate1_run1_10302020.D Fri Oct 30 16:28:54 2020
Start of data points
5.99328,198203
5.99955,210476
6.00580,221640
6.01205,221744
6.01832,232074
6.02457,210802
6.03082,203695
6.03708,210977
6.04333,220874
6.04958,213110
6.05585,217656
6.06210,217850
6.06835,231990
6.07462,214030
6.08087,211454
6.08712,192081
6.09338,208680
6.09963,312353
6.10588,630018
6.11215,998384
6.11840,997133
6.12465,637385
6.13092,354184
6.13717,235483
6.14342,226940
6.14968,271826
6.15593,349506
6.16218,517737
6.16843,799092
6.17470,977655
6.18095,828610
6.18720,513097
6.19347,306203
6.19972,235093
6.20597,217570
6.21223,202170
6.21848,181854
6.22473,164765
6.23100,160325
6.23725,160303
6.24350,160287
6.24977,154455
6.25602,153296
6.26227,143115
6.26853,150495
6.27478,153464
6.28103,161720
6.28730,157441
6.29355,159495
6.29980,194838
6.30607,274754
6.31232,506261
6.31857,1381805
6.32483,3787465
6.33108,8036776
6.33733,1.174926E+07
6.34360,1.037851E+07
6.34985,4802776
6.35610,1176593
6.36237,311538
6.36862,196626
6.37487,190301
6.38112,192106
6.38738,190157
6.39363,204949
6.39988,273370
6.40615,423611
6.41240,534500
6.41865,520561
6.42492,476940
6.43117,578258
6.43742,768194
6.44368,821049
6.44993,823230
6.45618,1433841
6.46245,3472519
6.46870,7987328
6.47495,1.485748E+07
6.48122,2.328979E+07
6.48747,3.125077E+07
6.49372,3.752195E+07
6.49998,4.200264E+07
6.50623,4.411133E+07
6.51248,4.44398E+07
6.51875,4.406436E+07
6.52500,4.333916E+07
6.53125,4.255758E+07
6.53752,1.250447E+07
6.54377,1053240
6.55002,769605
6.55628,819719
6.56253,1008880
6.56878,1344366
6.57505,1798000
6.58130,1865134
6.58755,1320034
6.59382,657716
6.60007,363977
6.60632,292695
6.61257,261789
6.61883,246024
6.62508,241360
6.63133,235154
6.63760,236296
6.64385,242663
6.65010,251892
6.65637,251324
6.66262,289942
6.66887,352817
6.67513,369174
6.68138,324362
6.68763,266176
6.69390,244226
6.70015,241694
6.70640,236693
6.71267,241772
6.71892,251226
6.72517,266594
6.73143,293196
6.73768,300106
6.74393,290976
6.75020,295364
6.75645,303286
6.76270,302899
6.76897,306460
6.77522,299744
6.78147,301667
6.78773,315288
6.79398,344239
6.80023,399459
6.80650,455113
6.81275,456180
6.81900,425519
6.82525,390318
6.83152,386741
6.83777,392479
6.84402,416990
6.85028,421722
6.85653,413499
6.86278,408530
6.86905,464637
6.87530,650756
6.88155,897929
6.88782,969579
6.89407,797642
6.90032,570082
6.90658,458794
6.91283,414952
6.91908,378241
6.92535,360628
6.93160,346346
6.93785,344290
6.94412,345065
6.95037,333390
6.95662,315521
6.96288,309844
6.96913,298227
6.97538,294181
6.98165,292152
6.98790,283280
6.99415,277824
7.00042,267865
7.00667,253932
7.01292,260412
7.01918,304019
7.02543,505837
7.03168,1338210
7.03793,3586844
7.04420,6917907
7.05045,8868345
7.05670,7232685
7.06297,3463204
7.06922,1047265
7.07547,351722
7.08173,206876
7.08798,172049
7.09423,156863
7.10050,151179
7.10675,148306
7.11300,144170
7.11927,141203
7.12552,130509
7.13177,147725
7.13803,243440
7.14428,425804
7.15053,582643
7.15680,516634
7.16305,320314
7.16930,181371
7.17557,136009
7.18182,125800
7.18807,127856
7.19433,147319
7.20058,174833
7.20683,195077
7.21310,179609
7.21935,144640
7.22560,122185
7.23187,128379
7.23812,147150
7.24437,209278
7.25063,378405
7.25688,704873
7.26313,1020503
7.26938,968129
7.27565,640329
7.28190,336120
7.28815,202938
7.29442,164741
7.30067,146002
7.30692,149129
7.31318,136001
7.31943,123897
7.32568,115606
7.33195,109867
7.33820,104790
7.34445,107606
7.35072,103565
7.35697,100956
7.36322,99147
7.36948,99265
7.37573,110824
7.38198,118520
7.38825,142242
7.39450,146702
7.40075,136004
7.40702,131314
7.41327,149058
7.41952,199022
7.42578,250240
7.43203,282759
7.43828,271473
7.44455,228848
7.45080,190976
7.45705,196746
7.46332,236551
7.46957,271472
7.47582,251946
7.48207,213226
7.48833,197042
7.49458,234844
7.50083,321673
7.50710,387243
7.51335,339170
7.51960,235844
7.52587,150053
7.53212,122077
7.53837,113194
7.54463,154762
7.55088,438564
7.55713,1633793
7.56340,5026552
7.56965,1.112714E+07
7.57590,1.809382E+07
7.58217,2.256673E+07
7.58842,2.051491E+07
7.59467,1.071489E+07
7.60093,3206433
7.60718,1111060
7.61343,727185
7.61970,594105
7.62595,548183
7.63220,500707
7.63847,394749
7.64472,280458
7.65097,206444
7.65723,175629
7.66348,171613
7.66973,206853
7.67600,299878
7.68225,399985
7.68850,413135
7.69477,325326
7.70102,227377
7.70727,195268
7.71352,238995
7.71978,314770
7.72603,343695
7.73228,318038
7.73855,267936
7.74480,224859
7.75105,184017
7.75732,155252
7.76357,138595
7.76982,126625
7.77608,129788
7.78233,136207
7.78858,140555
7.79485,141721
7.80110,143413
7.80735,131469
7.81362,139673
7.81987,179496
7.82612,253138
7.83238,319394
7.83863,325167
7.84488,266125
7.85115,216415
7.85740,239279
7.86365,306314
7.86992,348176
7.87617,304998
7.88242,243706
7.88868,191693
7.89493,189642
7.90118,202497
7.90745,237256
7.91370,252682
7.91995,255594
7.92620,249318
7.93247,222179
7.93872,219097
7.94497,240866
7.95123,307064
7.95748,361477
7.96373,345763
7.97000,294740
7.97625,252313
7.98250,263435
7.98877,352023
7.99502,544412
8.00127,715765
8.00753,800970
8.01378,996426
8.02003,1504238
8.02630,1937753
8.03255,1777708
8.03880,1226831
8.04507,788159
8.05132,706867
8.05757,790521
8.06383,744185
8.07008,549748
8.07633,367428
8.08260,333855
8.08885,440915
8.09510,565135
8.10137,682868
8.10762,848873
8.11387,1173197
8.12013,1463649
8.12638,1332995
8.13263,817990
8.13890,398424
8.14515,225637
8.15140,176320
8.15765,158131
8.16392,155895
8.17017,144710
8.17642,133352
8.18268,126076
8.18893,121731
8.19518,117107
8.20145,112421
8.20770,113232
8.21395,122807
8.22022,149691
8.22647,227731
8.23272,373579
8.23898,503611
8.24523,480480
8.25148,334509
8.25775,220078
8.26400,171848
8.27025,160097
8.27652,159266
8.28277,176809
8.28902,205159
8.29528,204297
8.30153,171592
8.30778,143658
8.31405,112535
8.32030,103362
8.32655,98511
8.33282,102470
8.33907,101514
8.34532,106169
8.35158,102782
8.35783,104948
8.36408,106985
8.37033,107710
8.37660,103473
8.38285,101801
8.38910,110447
8.39537,156519
8.40162,296500
8.40787,557675
8.41413,728439
8.42038,613892
8.42663,361360
8.43290,204710
8.43915,159184
8.44540,159941
8.45167,184270
8.45792,200579
8.46417,183951
8.47043,158137
8.47668,132277
8.48293,124520
8.48920,121367
8.49545,122499
8.50170,128913
8.50797,137382
8.51422,141278
8.52047,133708
8.52673,112159
8.53298,103392
8.53923,104545
8.54550,104772
8.55175,112057
8.55800,146933
8.56427,226269
8.57052,380062
8.57677,620162
8.58303,1016829
8.58928,1585324
8.59553,1974305
8.60178,1810041
8.60805,1622917
8.61430,2976653
8.62055,7042279
8.62682,1.263632E+07
8.63307,1.594713E+07
8.63932,1.350462E+07
8.64558,6780486
8.65183,2056827
8.65808,510121
8.66435,241124
8.67060,213213
8.67685,205377
8.68312,187348
8.68937,182280
8.69562,183991
8.70188,188350
8.70813,201358
8.71438,222013
8.72065,213723
8.72690,201645
8.73315,177501
8.73942,168653
8.74567,171285
8.75192,176758
8.75818,162673
8.76443,130465
8.77068,114413
8.77695,111447
8.78320,113747
8.78945,113963
8.79572,104642
8.80197,98727
8.80822,96724
8.81447,98286
8.82073,95180
8.82698,107512
8.83323,203108
8.83950,595511
8.84575,1777558
8.85200,4185869
8.85827,7432761
8.86452,9305333
8.87077,8505768
8.87703,5747921
8.88328,4141482
8.88953,4061770
8.89580,4804582
8.90205,5327829
8.90830,4521108
8.91457,2168632
8.92082,813204
8.92707,395572
8.93333,229449
8.93958,166311
8.94583,147320
8.95210,155531
8.95835,191585
8.96460,231249
8.97087,270305
8.97712,284834
8.98337,299670
8.98963,327119
8.99588,416564
9.00213,567530
9.00840,722711
9.01465,774612
9.02090,654394
9.02715,462073
9.03342,333064
9.03967,375480
9.04592,496905
9.05218,541435
9.05843,435601
9.06468,297516
9.07095,198964
9.07720,156830
9.08345,148324
9.08972,149058
9.09597,165363
9.10222,174283
9.10848,167472
9.11473,147063
9.12098,130334
9.12725,116074
9.13350,123865
9.13975,136287
9.14602,149247
9.15227,162551
9.15852,198440
9.16478,253675
9.17103,293316
9.17728,294431
9.18355,307458
9.18980,351845
9.19605,395471
9.20232,367365
9.20857,266823
9.21482,192113
9.22108,149158
9.22733,127532
9.23358,131911
9.23985,164075
9.24610,202303
9.25235,226170
9.25860,218398
9.26487,172077
9.27112,131503
9.27737,111181
9.28363,108099
9.28988,123191
9.29613,160867
9.30240,219511
9.30865,266957
9.31490,297192
9.32117,309697
9.32742,305217
9.33367,311263
9.33993,407920
9.34618,682403
9.35243,980598
9.35870,1045494
9.36495,791363
9.37120,493419
9.37747,539682
9.38372,1689827
9.38997,5173432
9.39623,1.084502E+07
9.40248,1.507987E+07
9.40873,1.477984E+07
9.41500,9123955
9.42125,3220825
9.42750,956963
9.43377,850718
9.44002,2547460
9.44627,7524568
9.45253,1.674902E+07
9.45878,2.613194E+07
9.46503,3.002959E+07
9.47128,2.632251E+07
9.47755,1.568997E+07
9.48380,5352912
9.49005,1351414
9.49632,466787
9.50257,273072
9.50882,212800
9.51508,199536
9.52133,188968
9.52758,183583
9.53385,177404
9.54010,167501
9.54635,167985
9.55262,166699
9.55887,167318
9.56512,174349
9.57138,195386
9.57763,203781
9.58388,203961
9.59015,185856
9.59640,168613
9.60265,167451
9.60892,189970
9.61517,242528
9.62142,265126
9.62768,238612
9.63393,185650
9.64018,160731
9.64645,149286
9.65270,149217
9.65895,154389
9.66522,145201
9.67147,144538
9.67772,257948
9.68397,862432
9.69023,2983381
9.69648,7292276
9.70273,1.246276E+07
9.70900,1.463051E+07
9.71525,1.114438E+07
9.72150,5064765
9.72777,2327228
9.73402,2753370
9.74027,4092222
9.74653,4385725
9.75278,3229224
9.75903,1537239
9.76530,574909
9.77155,254196
9.77780,182259
9.78407,154045
9.79032,142296
9.79657,124575
9.80283,118943
9.80908,121234
9.81533,116290
9.82160,119412
9.82785,118630
9.83410,122086
9.84037,143360
9.84662,190597
9.85287,335024
9.85913,951204
9.86538,2998247
9.87163,7086155
9.87790,1.191287E+07
9.88415,1.405219E+07
9.89040,1.122544E+07
9.89667,5376213
9.90292,2006772
9.90917,1452241
9.91542,1721210
9.92168,1518301
9.92793,876816
9.93418,401221
9.94045,212653
9.94670,167824
9.95295,174912
9.95922,224210
9.96547,371026
9.97172,625442
9.97798,831463
9.98423,887255
9.99048,770681
9.99675,608495
10.00300,439845
10.00925,316165
10.01552,246568
10.02177,219511
10.02802,199383
10.03428,175641
10.04053,160146
10.04678,153119
10.05305,149816
10.05930,144351
10.06555,137428
10.07182,124279
10.07807,124770
10.08432,129198
10.09058,137491
10.09683,150068
10.10308,166156
10.10935,178316
10.11560,180590
10.12185,186879
10.12810,178571
10.13437,152480
10.14062,134039
10.14687,123580
10.15313,118688
10.15938,124003
10.16563,120063
10.17190,118299
10.17815,125779
10.18440,140177
10.19067,148012
10.19692,149908
10.20317,136020
10.20943,129240
10.21568,137325
10.22193,186641
10.22820,298885
10.23445,416442
10.24070,459635
10.24697,419827
10.25322,329599
10.25947,261092
10.26573,229705
10.27198,211912
10.27823,182942
10.28450,180368
10.29075,227438
10.29700,290817
10.30327,318202
10.30952,265137
10.31577,200339
10.32203,164300
10.32828,184391
10.33453,270346
10.34080,378941
10.34705,402333
10.35330,300356
10.35955,210589
10.36582,164956
10.37207,150368
10.37832,134861
10.38458,125400
10.39083,118791
10.39708,111307
10.40335,102257
10.40960,101331
10.41585,100348
10.42212,108889
10.42837,121488
10.43462,130158
10.44088,131195
10.44713,132478
10.45338,134047
10.45965,133983
10.46590,139456
10.47215,138303
10.47842,158519
10.48467,204664
10.49092,270464
10.49718,290900
10.50343,262210
10.50968,198185
10.51595,153543
10.52220,129011
10.52845,137288
10.53472,163966
10.54097,217378
10.54722,249598
10.55348,233075
10.55973,196914
10.56598,171325
10.57223,180168
10.57850,203341
10.58475,235746
10.59100,237909
10.59727,231952
10.60352,302460
10.60977,847541
10.61603,2723223
10.62228,6541886
10.62853,1.094975E+07
10.63480,1.307311E+07
10.64105,1.03671E+07
10.64730,4793321
10.65357,1534581
10.65982,451327
10.66607,216324
10.67233,182401
10.67858,190692
10.68483,193879
10.69110,185139
10.69735,163475
10.70360,137103
10.70987,127930
10.71612,125362
10.72237,129234
10.72863,140762
10.73488,153875
10.74113,162399
10.74740,164936
10.75365,160811
10.75990,158095
10.76617,150478
10.77242,155281
10.77867,158176
10.78493,160511
10.79118,163553
10.79743,170159
10.80368,175332
10.80995,213469
10.81620,318439
10.82245,480650
10.82872,547482
10.83497,443409
10.84122,281894
10.84748,180797
10.85373,156566
10.85998,160345
10.86625,169386
10.87250,168436
10.87875,164373
10.88502,159095
10.89127,159396
10.89752,165299
10.90378,182807
10.91003,205303
10.91628,208989
10.92255,190680
10.92880,173669
10.93505,172298
10.94132,154611
10.94757,136269
10.95382,127480
10.96008,144101
10.96633,281092
10.97258,858935
10.97885,2748761
10.98510,6912442
10.99135,1.291483E+07
10.99762,1.893768E+07
11.00387,2.083472E+07
11.01012,1.512632E+07
11.01637,6318620
11.02263,1655636
11.02888,422682
11.03513,243563
11.04140,235270
11.04765,246227
11.05390,258706
11.06017,287074
11.06642,311271
11.07267,288460
11.07893,225758
11.08518,172041
11.09143,149308
11.09770,150040
11.10395,166874
11.11020,177736
11.11647,172546
11.12272,171187
11.12897,179818
11.13523,189017
11.14148,202132
11.14773,208266
11.15400,226934
11.16025,284198
11.16650,406653
11.17277,529028
11.17902,539403
11.18527,405265
11.19153,266644
11.19778,179172
11.20403,156162
11.21030,171897
11.21655,214329
11.22280,245831
11.22907,256427
11.23532,241975
11.24157,211182
11.24782,202943
11.25408,215306
11.26033,234192
11.26658,230569
11.27285,220851
11.27910,227904
11.28535,256005
11.29162,259475
11.29787,235461
11.30412,191944
11.31038,163745
11.31663,176970
11.32288,244143
11.32915,372564
11.33540,502532
11.34165,509989
11.34792,379001
11.35417,229851
11.36042,157336
11.36668,130879
11.37293,126181
11.37918,122952
11.38545,121744
11.39170,118882
11.39795,123052
11.40422,137670
11.41047,147394
11.41672,152743
11.42298,159152
11.42923,157401
11.43548,179272
11.44175,289160
11.44800,516540
11.45425,770255
11.46050,834855
11.46677,651891
11.47302,404997
11.47927,243022
11.48553,202384
11.49178,192103
11.49803,182114
11.50430,164455
11.51055,155920
11.51680,145782
11.52307,140043
11.52932,130848
11.53557,130843
11.54183,131042
11.54808,130772
11.55433,132382
11.56060,127790
11.56685,120409
11.57310,119498
11.57937,117364
11.58562,125751
11.59187,130562
11.59813,138003
11.60438,144176
11.61063,142710
11.61690,136655
11.62315,133661
11.62940,132128
11.63567,133291
11.64192,132706
11.64817,142000
11.65443,159694
11.66068,174305
11.66693,181223
11.67318,168886
11.67945,154524
11.68570,145751
11.69195,144137
11.69822,153661
11.70447,174899
11.71072,212573
11.71698,273802
11.72323,341617
11.72948,356480
11.73575,302859
11.74200,238320
11.74825,197971
11.75452,172882
11.76077,158637
11.76702,165034
11.77328,188026
11.77953,215982
11.78578,246404
11.79205,260374
11.79830,264066
11.80455,253988
11.81082,238178
11.81707,223537
11.82332,212190
11.82958,239687
11.83583,343571
11.84208,516151
11.84835,654367
11.85460,629486
11.86085,463662
11.86712,319653
11.87337,236342
11.87962,214590
11.88588,237569
11.89213,319547
11.89838,409385
11.90463,443807
11.91090,398434
11.91715,313275
11.92340,252885
11.92967,210493
11.93592,209249
11.94217,269303
11.94843,485905
11.95468,1087691
11.96093,2267467
11.96720,4123408
11.97345,5402542
11.97970,4940533
11.98597,2993322
11.99222,1217670
11.99847,468969
12.00473,334113
12.01098,342608
12.01723,346504
12.02350,320103
12.02975,305458
12.03600,316564
12.04227,373764
12.04852,496408
12.05477,699454
12.06103,836233
12.06728,828458
12.07353,676876
12.07980,505782
12.08605,393075
12.09230,369650
12.09857,387595
12.10482,390109
12.11107,366303
12.11732,302050
12.12358,243338
12.12983,211393
12.13608,197739
12.14235,191411
12.14860,185909
12.15485,177868
12.16112,179482
12.16737,176449
12.17362,181930
12.17988,179533
12.18613,182172
12.19238,195960
12.19865,221043
12.20490,273720
12.21115,333143
12.21742,392469
12.22367,412786
12.22992,387320
12.23618,335966
12.24243,319684
12.24868,370366
12.25495,522260
12.26120,820762
12.26745,1265123
12.27372,1774204
12.27997,2126649
12.28622,2080087
12.29248,1472292
12.29873,776596
12.30498,376845
12.31125,217823
12.31750,167705
12.32375,154585
12.33000,154795
12.33627,169218
12.34252,187578
12.34877,215701
12.35503,244389
12.36128,260293
12.36753,271468
12.37380,257647
12.38005,256564
12.38630,278450
12.39257,331651
12.39882,376453
12.40507,345679
12.41133,267340
12.41758,219434
12.42383,201029
12.43010,203428
12.43635,243067
12.44260,277482
12.44887,287098
12.45512,254438
12.46137,228041
12.46763,223270
12.47388,272603
12.48013,416756
12.48640,782583
12.49265,1423150
12.49890,2134951
12.50517,2482214
12.51142,2030656
12.51767,1187698
12.52393,543487
12.53018,266698
12.53643,201424
12.54270,212557
12.54895,246600
12.55520,255628
12.56145,248957
12.56772,240445
12.57397,299067
12.58022,524425
12.58648,1038607
12.59273,1792920
12.59898,2397985
12.60525,2439837
12.61150,1984034
12.61775,1796215
12.62402,2251034
12.63027,3166767
12.63652,4370939
12.64278,5780825
12.64903,7648201
12.65528,1.074223E+07
12.66155,1.535843E+07
12.66780,2.106293E+07
12.67405,2.597627E+07
12.68032,2.87164E+07
12.68657,2.899912E+07
12.69282,2.69639E+07
12.69908,1.584036E+07
12.70533,4071894
12.71158,1012466
12.71785,743206
12.72410,932988
12.73035,1067534
12.73662,1051858
12.74287,957293
12.74912,888094
12.75538,778371
12.76163,618293
12.76788,505374
12.77413,429829
12.78040,383563
12.78665,366422
12.79290,359965
12.79917,381380
12.80542,362946
12.81167,333468
12.81793,300251
12.82418,282832
12.83043,270429
12.83670,272389
12.84295,271468
12.84920,261775
12.85547,253549
12.86172,247702
12.86797,237897
12.87423,238897
12.88048,250442
12.88673,304350
12.89300,433036
12.89925,624948
12.90550,780192
12.91177,732866
12.91802,563580
12.92427,398998
12.93053,310018
12.93678,257511
12.94303,234421
12.94930,217431
12.95555,206221
12.96180,213283
12.96807,203236
12.97432,197200
12.98057,196370
12.98682,205342
12.99308,225360
12.99933,241298
13.00558,266467
13.01185,271982
13.01810,293661
13.02435,329322
13.03062,432592
13.03687,602392
13.04312,768265
13.04938,772768
13.05563,596643
13.06188,423559
13.06815,396968
13.07440,624979
13.08065,1293034
13.08692,2494244
13.09317,3387850
13.09942,3564537
13.10568,2498661
13.11193,1414833
13.11818,763551
13.12445,506445
13.13070,387267
13.13695,320818
13.14322,307243
13.14947,308494
13.15572,292430
13.16198,266810
13.16823,256434
13.17448,242942
13.18075,231768
13.18700,214334
13.19325,209323
13.19952,202300
13.20577,200304
13.21202,205012
13.21827,210631
13.22453,218809
13.23078,236077
13.23703,254776
13.24330,279896
13.24955,288293
13.25580,290971
13.26207,305356
13.26832,329405
13.27457,347353
13.28083,323498
13.28708,312655
13.29333,339883
13.29960,456603
13.30585,731413
13.31210,1211946
13.31837,1613672
13.32462,1551051
13.33087,1024466
13.33713,554786
13.34338,332018
13.34963,276517
13.35590,285551
13.36215,287333
13.36840,280637
13.37467,262495
13.38092,243434
13.38717,227790
13.39343,218768
13.39968,211776
13.40593,209999
13.41220,213157
13.41845,224553
13.42470,240059
13.43095,271291
13.43722,307842
13.44347,340290
13.44972,345029
13.45598,330704
13.46223,301612
13.46848,269952
13.47475,251812
13.48100,250410
13.48725,260099
13.49352,263360
13.49977,273763
13.50602,265451
13.51228,256976
13.51853,255804
13.52478,268753
13.53105,271819
13.53730,285418
13.54355,291003
13.54982,332828
13.55607,410880
13.56232,509263
13.56858,576070
13.57483,548443
13.58108,497376
13.58735,479795
13.59360,564642
13.59985,746677
13.60612,1042479
13.61237,1281587
13.61862,1300428
13.62488,1100117
13.63113,821831
13.63738,616125
13.64365,482074
13.64990,394062
13.65615,358194
13.66240,348744
13.66867,348476
13.67492,337950
13.68117,338669
13.68743,356859
13.69368,382908
13.69993,418962
13.70620,421418
13.71245,392405
13.71870,354425
13.72497,324849
13.73122,322909
13.73747,324994
13.74373,330820
13.74998,350923
13.75623,435409
13.76250,665974
13.76875,1083404
13.77500,1431905
13.78127,1432969
13.78752,1028075
13.79377,653647
13.80003,572938
13.80628,876915
13.81253,1724925
13.81880,3352524
13.82505,5906387
13.83130,9835911
13.83757,1.551498E+07
13.84382,2.257053E+07
13.85007,2.786625E+07
13.85633,2.81459E+07
13.86258,1.829412E+07
13.86883,5396634
13.87508,1035860
13.88135,390066
13.88760,402210
13.89385,676003
13.90012,1377533
13.90637,2764794
13.91262,5178858
13.91888,8362145
13.92513,1.027151E+07
13.93138,9198697
13.93765,5514920
13.94390,2054568
13.95015,609478
13.95642,245619
13.96267,196087
13.96892,189163
13.97518,186357
13.98143,184156
13.98768,189348
13.99395,190544
14.00020,197341
14.00645,209754
14.01272,229538
14.01897,261577
14.02522,274874
14.03148,243452
14.03773,195409
14.04398,163930
14.05025,152949
14.05650,156306
14.06275,169853
14.06902,187467
14.07527,213669
14.08152,224044
14.08778,212161
14.09403,185765
14.10028,158315
14.10653,142913
14.11280,133122
14.11905,140223
14.12530,144755
14.13157,152441
14.13782,159280
14.14407,159016
14.15033,152170
14.15658,146364
14.16283,146393
14.16910,149549
14.17535,143345
14.18160,132426
14.18787,129102
14.19412,127581
14.20037,133366
14.20663,139928
14.21288,149924
14.21913,170063
14.22540,203237
14.23165,229573
14.23790,252730
14.24417,242267
14.25042,208779
14.25667,184851
14.26293,202043
14.26918,269128
14.27543,435866
14.28170,638871
14.28795,722366
14.29420,595968
14.30047,397549
14.30672,280725
14.31297,231744
14.31922,233441
14.32548,276615
14.33173,359546
14.33798,402327
14.34425,382996
14.35050,294856
14.35675,233129
14.36302,185755
14.36927,165777
14.37552,165037
14.38178,169324
14.38803,181544
14.39428,200802
14.40055,256379
14.40680,418602
14.41305,884338
14.41932,1953639
14.42557,3515036
14.43182,5204903
14.43808,5397646
14.44433,3825631
14.45058,2149734
14.45685,1287099
14.46310,970996
14.46935,882005
14.47562,789519
14.48187,679294
14.48812,587891
14.49438,500373
14.50063,391749
14.50688,301494
14.51315,241928
14.51940,208627
14.52565,204583
14.53192,211061
14.53817,214740
14.54442,200537
14.55067,199970
14.55693,203905
14.56318,209111
14.56943,219608
14.57570,231730
14.58195,236660
14.58820,228051
14.59447,201926
14.60072,179725
14.60697,170421
14.61323,172261
14.61948,174304
14.62573,177771
14.63200,184404
14.63825,215469
14.64450,306256
14.65077,424355
14.65702,535846
14.66327,526731
14.66953,449573
14.67578,350173
14.68203,288897
14.68830,267403
14.69455,270416
14.70080,315019
14.70707,374660
14.71332,412076
14.71957,431067
14.72583,493594
14.73208,724869
14.73833,1181283
14.74460,1703927
14.75085,2023588
14.75710,2193512
14.76335,2448905
14.76962,2529105
14.77587,2280433
14.78212,1450541
14.78838,751009
14.79463,489275
14.80088,812118
14.80715,1997664
14.81340,3885374
14.81965,5534444
14.82592,5576595
14.83217,3608148
14.83842,1558791
14.84468,549916
14.85093,265773
14.85718,225079
14.86345,253294
14.86970,313944
14.87595,362649
14.88222,355363
14.88847,313636
14.89472,259669
14.90098,243108
14.90723,252773
14.91348,366336
14.91975,592150
14.92600,858636
14.93225,922281
14.93852,808577
14.94477,638963
14.95102,485273
14.95728,390645
14.96353,407047
14.96978,626449
14.97603,1230014
14.98230,2149350
14.98855,2873566
14.99480,2639543
15.00107,1687719
15.00732,819959
15.01357,406482
15.01983,276849
15.02608,227739
15.03233,209724
15.03860,210334
15.04485,226348
15.05110,245514
15.05737,262444
15.06362,276506
15.06987,267194
15.07613,255971
15.08238,247616
15.08863,240172
15.09490,266078
15.10115,294441
15.10740,335672
15.11367,360260
15.11992,398071
15.12617,493954
15.13243,616015
15.13868,705349
15.14493,810335
15.15120,878311
15.15745,966160
15.16370,1135283
15.16997,1835358
15.17622,3120951
15.18247,4260417
15.18873,3966692
15.19498,2612848
15.20123,1321414
15.20748,661521
15.21375,417765
15.22000,305174
15.22625,235774
15.23252,197348
15.23877,181957
15.24502,190139
15.25128,198879
15.25753,222469
15.26378,238295
15.27005,232530
15.27630,214589
15.28255,192644
15.28882,172674
15.29507,174287
15.30132,173066
15.30758,180636
15.31383,196408
15.32008,228357
15.32635,286860
15.33260,331319
15.33885,324327
15.34512,270387
15.35137,220188
15.35762,202133
15.36388,222080
15.37013,249538
15.37638,262101
15.38265,239439
15.38890,208495
15.39515,189381
15.40142,171090
15.40767,162557
15.41392,157650
15.42017,159921
15.42643,183288
15.43268,238775
15.43893,325207
15.44520,446363
15.45145,612593
15.45770,838773
15.46397,987789
15.47022,838369
15.47647,564072
15.48273,356672
15.48898,240714
15.49523,197158
15.50150,188700
15.50775,216024
15.51400,266357
15.52027,438223
15.52652,955692
15.53277,2190646
15.53903,3992197
15.54528,6018086
15.55153,8226363
15.55780,1.065685E+07
15.56405,1.381698E+07
15.57030,1.609348E+07
15.57657,1.347577E+07
15.58282,5975019
15.58907,1646690
15.59533,618183
15.60158,418610
15.60783,372771
15.61410,363314
15.62035,373545
15.62660,371929
15.63285,350123
15.63912,321656
15.64537,307408
15.65162,280560
15.65788,258470
15.66413,246090
15.67038,245125
15.67665,262145
15.68290,272348
15.68915,289505
15.69542,279483
15.70167,269621
15.70792,257426
15.71418,240574
15.72043,210683
15.72668,188863
15.73295,182683
15.73920,183831
15.74545,194089
15.75172,209783
15.75797,216844
15.76422,220452
15.77048,201617
15.77673,173559
15.78298,153939
15.78925,142185
15.79550,143857
15.80175,149898
15.80802,149177
15.81427,152277
15.82052,154565
15.82678,166086
15.83303,204326
15.83928,285221
15.84555,461620
15.85180,702985
15.85805,793075
15.86430,662144
15.87057,431584
15.87682,267274
15.88307,207714
15.88933,195299
15.89558,190847
15.90183,184722
15.90810,172469
15.91435,159630
15.92060,155024
15.92687,160924
15.93312,164149
15.93937,162431
15.94563,163619
15.95188,159153
15.95813,151262
15.96440,154063
15.97065,163964
15.97690,170046
15.98317,163721
15.98942,153073
15.99567,140348
16.00193,135065
16.00818,143563
16.01443,183546
16.02070,257617
16.02695,353286
16.03320,448678
16.03947,507006
16.04572,530923
16.05197,541570
16.05823,535135
16.06448,494996
16.07073,419485
16.07698,414913
16.08325,514226
16.08950,695846
16.09575,897996
16.10202,912396
16.10827,869753
16.11452,939196
16.12078,1364643
16.12703,2317596
16.13328,3229125
16.13955,3442817
16.14580,2451891
16.15205,1330140
16.15832,645217
16.16457,362252
16.17082,291532
16.17708,273946
16.18333,262246
16.18958,257583
16.19585,275555
16.20210,319198
16.20835,324459
16.21462,279468
16.22087,240993
16.22712,255985
16.23338,398665
16.23963,687031
16.24588,960072
16.25215,989330
16.25840,712927
16.26465,427873
16.27092,281510
16.27717,226214
16.28342,198879
16.28968,185372
16.29593,195183
16.30218,251770
16.30843,382185
16.31470,528275
16.32095,597775
16.32720,494616
16.33347,357154
16.33972,263132
16.34597,212654
16.35223,189655
16.35848,185089
16.36473,180554
16.37100,191007
16.37725,195850
16.38350,198523
16.38977,196250
16.39602,197254
16.40227,201162
16.40853,196303
16.41478,193787
16.42103,188988
16.42730,193555
16.43355,222530
16.43980,315645
16.44607,507819
16.45232,784702
16.45857,977117
16.46483,847611
16.47108,662099
16.47733,506666
16.48360,408893
16.48985,340360
16.49610,294729
16.50237,267111
16.50862,277472
16.51487,320962
16.52112,445606
16.52738,640172
16.53363,791710
16.53988,819485
16.54615,699703
16.55240,572087
16.55865,498180
16.56492,450370
16.57117,428202
16.57742,391284
16.58368,373140
16.58993,355353
16.59618,351984
16.60245,340475
16.60870,336559
16.61495,325361
16.62122,331134
16.62747,339955
16.63372,346594
16.63998,367520
16.64623,405511
16.65248,452848
16.65875,480754
16.66500,487725
16.67125,439368
16.67752,401041
16.68377,399717
16.69002,418468
16.69628,403397
16.70253,373194
16.70878,332194
16.71505,292158
16.72130,268471
16.72755,263038
16.73382,269280
16.74007,285038
16.74632,302111
16.75257,357152
16.75883,462978
16.76508,733187
16.77133,1377914
16.77760,2853694
16.78385,5112879
16.79010,7723574
16.79637,8932845
16.80262,8518072
16.80887,9053898
16.81513,1.040296E+07
16.82138,1.154525E+07
16.82763,1.218288E+07
16.83390,1.218251E+07
16.84015,1.179815E+07
16.84640,1.279462E+07
16.85267,1.330018E+07
16.85892,1.235173E+07
16.86517,1.044953E+07
16.87143,8020947
16.87768,6691223
16.88393,6547520
16.89020,7577742
16.89645,8225291
16.90270,9065910
16.90897,9158328
16.91522,7940061
16.92147,6351497
16.92773,4962569
16.93398,4234211
16.94023,4316895
16.94650,4421801
16.95275,4520403
16.95900,4636358
16.96525,5070652
16.97152,5145865
16.97777,4457408
16.98402,3608529
16.99028,2735715
16.99653,2155063
17.00278,1967355
17.00905,2055498
17.01530,2576364
17.02155,4124937
17.02782,7375930
17.03407,1.226685E+07
17.04032,1.742014E+07
17.04658,2.238253E+07
17.05283,2.815558E+07
17.05908,3.663055E+07
17.06535,4.399028E+07
17.07160,4.784225E+07
17.07785,4.792018E+07
17.08412,4.641904E+07
17.09037,4.382178E+07
17.09662,4.151468E+07
17.10288,3.906667E+07
17.10913,3.844002E+07
17.11538,3.67429E+07
17.12165,3.673304E+07
17.12790,4.397412E+07
17.13415,9618941
17.14042,5379541
17.14667,4878789
17.15292,4733338
17.15918,6143342
17.16543,1.056112E+07
17.17168,1.87519E+07
17.17793,2.833209E+07
17.18420,3.445954E+07
17.19045,3.119502E+07
17.19670,1.777207E+07
17.20297,6894543
17.20922,3725072
17.21547,3283360
17.22173,3630763
17.22798,4319031
17.23423,5117797
17.24050,6957123
17.24675,1.153918E+07
17.25300,2.063736E+07
17.25927,3.283141E+07
17.26552,4.273627E+07
17.27177,4.720586E+07
17.27803,4.755442E+07
17.28428,4.04347E+07
17.29053,2.001202E+07
17.29680,8884049
17.30305,1.012693E+07
17.30930,1.435696E+07
17.31557,1.597237E+07
17.32182,1.273498E+07
17.32807,7145542
17.33433,3194493
17.34058,1843913
17.34683,1521349
17.35310,1381815
17.35935,1303747
17.36560,1216750
17.37187,1133387
17.37812,1097727
17.38437,1069167
17.39063,1071778
17.39688,1060077
17.40313,1089378
17.40938,1195131
17.41565,1332752
17.42190,1484327
17.42815,1532226
17.43442,1428142
17.44067,1424161
17.44692,1578827
17.45318,2240621
17.45943,3520719
17.46568,4482829
17.47195,4708905
17.47820,3399944
17.48445,1995784
17.49072,1209455
17.49697,933411
17.50322,868222
17.50948,878455
17.51573,910103
17.52198,1001678
17.52825,1028141
17.53450,1009338
17.54075,866599
17.54702,731386
17.55327,696899
17.55952,756121
17.56578,1020087
17.57203,1728514
17.57828,3539108
17.58455,6502088
17.59080,9649862
17.59705,9118524
17.60332,6288707
17.60957,3235968
17.61582,1488341
17.62207,945380
17.62833,853488
17.63458,828203
17.64083,774561
17.64710,694645
17.65335,643116
17.65960,605111
17.66587,590216
17.67212,566243
17.67837,561438
17.68463,552437
17.69088,576040
17.69713,627674
17.70340,749715
17.70965,982747
17.71590,1190961
17.72217,1226065
17.72842,979706
17.73467,728936
17.74093,582423
17.74718,553320
17.75343,584422
17.75970,613087
17.76595,632032
17.77220,666115
17.77847,748482
17.78472,991813
17.79097,1527972
17.79723,2744534
17.80348,5182587
17.80973,8387211
17.81600,1.121042E+07
17.82225,1.237025E+07
17.82850,1.098626E+07
17.83475,6819133
17.84102,3590931
17.84727,1903174
17.85352,1185865
17.85978,900922
17.86603,1002930
17.87228,1793464
17.87855,3805181
17.88480,6276211
17.89105,7598695
17.89732,6116473
17.90357,3661839
17.90982,1807075
17.91608,1031692
17.92233,786774
17.92858,681845
17.93485,635300
17.94110,576691
17.94735,547756
17.95362,521013
17.95987,513392
17.96612,502710
17.97238,506379
17.97863,501223
17.98488,514876
17.99115,544526
17.99740,579290
18.00365,636239
18.00992,733156
18.01617,846690
18.02242,886431
18.02868,822423
18.03493,682055
18.04118,554323
18.04745,489420
18.05370,466754
18.05995,442551
18.06620,419132
18.07247,393132
18.07872,378346
18.08497,387025
18.09123,412723
18.09748,489119
18.10373,631159
18.11000,813030
18.11625,975345
18.12250,1027625
18.12877,938857
18.13502,1021729
18.14127,1554157
18.14753,2714068
18.15378,3626369
18.16003,3397808
18.16630,2291171
18.17255,1221523
18.17880,652141
18.18507,445524
18.19132,381078
18.19757,341382
18.20383,332889
18.21008,334178
18.21633,348371
18.22260,380451
18.22885,403701
18.23510,398051
18.24137,377878
18.24762,342784
18.25387,333316
18.26013,328780
18.26638,328538
18.27263,344215
18.27888,375380
18.28515,418937
18.29140,466820
18.29765,576927
18.30392,778146
18.31017,973723
18.31642,1010809
18.32268,838070
18.32893,609707
18.33518,442820
18.34145,351533
18.34770,311786
18.35395,299314
18.36022,309948
18.36647,329729
18.37272,344952
18.37898,347488
18.38523,358242
18.39148,407418
18.39775,452678
18.40400,470769
18.41025,463084
18.41652,458101
18.42277,471135
18.42902,451157
18.43528,405165
18.44153,369687
18.44778,335747
18.45405,306831
18.46030,284417
18.46655,269322
18.47282,261061
18.47907,255882
18.48532,254166
18.49157,252610
18.49783,248897
18.50408,248631
18.51033,251053
18.51660,254285
18.52285,257333
18.52910,252412
18.53537,247587
18.54162,252470
18.54787,252990
18.55413,268534
18.56038,286000
18.56663,290067
18.57290,291623
18.57915,285265
18.58540,267694
18.59167,256739
18.59792,257469
18.60417,267089
18.61043,287557
18.61668,322674
18.62293,371365
18.62920,368963
18.63545,353254
18.64170,355158
18.64797,382710
18.65422,409625
18.66047,388926
18.66673,354920
18.67298,339138
18.67923,338454
18.68550,328569
18.69175,295565
18.69800,273823
18.70427,277277
18.71052,296199
18.71677,335267
18.72302,366160
18.72928,358645
18.73553,325299
18.74178,291374
18.74805,261947
18.75430,264763
18.76055,258960
18.76682,256146
18.77307,241384
18.77932,235720
18.78558,231767
18.79183,222546
18.79808,218609
18.80435,217185
18.81060,231779
18.81685,237633
18.82312,244064
18.82937,240149
18.83562,239905
18.84188,233230
18.84813,224604
18.85438,219662
18.86065,212110
18.86690,232297
18.87315,308384
18.87942,564638
18.88567,1329012
18.89192,3291201
18.89818,6263792
18.90443,9675859
18.91068,1.073292E+07
18.91695,8646921
18.92320,4702840
18.92945,1938259
18.93570,700684
18.94197,388244
18.94822,331333
18.95447,302315
18.96073,271080
18.96698,243652
18.97323,226445
18.97950,216092
18.98575,205241
18.99200,211989
18.99827,215684
19.00452,223262
19.01077,242638
19.01703,255589
19.02328,250057
19.02953,240666
19.03580,231523
19.04205,230970
19.04830,243542
19.05457,261461
19.06082,271389
19.06707,265438
19.07333,240882
19.07958,249036
19.08583,255106
19.09210,273991
19.09835,290476
19.10460,296161
19.11087,302755
19.11712,296644
19.12337,297793
19.12963,299397
19.13588,311948
19.14213,314545
19.14840,313027
19.15465,294813
19.16090,272412
19.16715,247426
19.17342,228825
19.17967,210332
19.18592,204417
19.19218,206470
19.19843,204865
19.20468,210237
19.21095,212441
19.21720,215417
19.22345,211126
19.22972,211998
19.23597,202643
19.24222,193248
19.24848,185285
19.25473,179137
19.26098,182029
19.26725,181870
19.27350,176035
19.27975,178708
19.28602,176657
19.29227,192683
19.29852,204685
19.30478,210476
19.31103,211719
19.31728,198867
19.32355,189672
19.32980,176597
19.33605,176637
19.34232,176020
19.34857,194676
19.35482,210373
19.36108,236524
19.36733,250414
19.37358,238895
19.37983,227708
19.38610,213028
19.39235,219291
19.39860,226306
19.40487,240018
19.41112,259845
19.41737,267606
19.42363,263848
19.42988,254451
19.43613,234949
19.44240,227154
19.44865,228804
19.45490,232191
19.46117,235378
19.46742,223694
19.47367,217539
19.47993,207691
19.48618,213509
19.49243,207375
19.49870,219352
19.50495,229860
19.51120,233926
19.51747,243636
19.52372,244823
19.52997,258829
19.53623,256800
19.54248,264710
19.54873,281769
19.55500,328027
19.56125,385348
19.56750,397650
19.57377,361999
19.58002,294440
19.58627,249036
19.59253,216373
19.59878,205379
19.60503,198466
19.61128,192322
19.61755,193559
19.62380,186041
19.63005,191119
19.63632,218853
19.64257,256780
19.64882,281875
19.65508,288873
19.66133,265935
19.66758,247431
19.67385,254819
19.68010,292135
19.68635,324596
19.69262,343564
19.69887,319399
19.70512,285078
19.71138,271412
19.71763,269746
19.72388,280162
19.73015,275707
19.73640,272055
19.74265,276712
19.74892,280637
19.75517,277748
19.76142,273625
19.76768,277477
19.77393,312195
19.78018,378022
19.78645,427533
19.79270,390256
19.79895,333560
19.80522,290076
19.81147,267390
19.81772,253298
19.82397,235148
19.83023,209600
19.83648,199353
19.84273,184590
19.84900,183393
19.85525,191139
19.86150,213459
19.86777,250461
19.87402,289340
19.88027,315570
19.88653,307849
19.89278,269642
19.89903,244041
19.90530,254857
19.91155,385645
19.91780,864546
19.92407,2065027
19.93032,3785027
19.93657,5187522
19.94283,4842166
19.94908,3043608
19.95533,1378255
19.96160,595851
19.96785,374760
19.97410,367502
19.98037,440810
19.98662,507458
19.99287,595392
19.99913,546143
20.00538,470061
20.01163,380682
20.01790,313215
20.02415,261367
20.03040,237748
20.03667,220584
20.04292,227522
20.04917,248044
20.05542,275740
20.06168,303283
20.06793,302991
20.07418,276279
20.08045,232879
20.08670,210205
20.09295,213131
20.09922,226614
20.10547,257239
20.11172,262977
20.11798,244971
20.12423,220499
20.13048,206374
20.13675,195646
20.14300,194051
20.14925,197055
20.15552,206347
20.16177,210718
20.16802,212301
20.17428,215263
20.18053,206368
20.18678,203148
20.19305,203038
20.19930,212880
20.20555,218723
20.21182,229029
20.21807,229757
20.22432,225579
20.23058,227366
20.23683,233429
20.24308,237878
20.24935,240681
20.25560,235819
20.26185,226113
20.26810,222503
20.27437,223238
20.28062,219021
20.28687,227760
20.29313,272343
20.29938,433052
20.30563,730209
20.31190,1190159
20.31815,1473308
20.32440,1399375
20.33067,998037
20.33692,594520
20.34317,369348
20.34943,305667
20.35568,317231
20.36193,311640
20.36820,287393
20.37445,263477
20.38070,242344
20.38697,234366
20.39322,237563
20.39947,231857
20.40573,221705
20.41198,219222
20.41823,214913
20.42450,244833
20.43075,350179
20.43700,609077
20.44327,1088690
20.44952,1791559
20.45577,2271580
20.46203,1954650
20.46828,1340951
20.47453,791214
20.48078,584539
20.48705,636143
20.49330,791849
20.49955,930832
20.50582,835651
20.51207,600517
20.51832,433468
20.52458,345359
20.53083,335232
20.53708,332116
20.54335,339682
20.54960,367845
20.55585,437066
20.56212,532139
20.56837,560818
20.57462,513574
20.58088,418487
20.58713,341691
20.59338,316596
20.59965,329868
20.60590,331360
20.61215,335382
20.61842,297304
20.62467,260003
20.63092,229539
20.63718,218936
20.64343,219968
20.64968,223665
20.65595,235726
20.66220,279061
20.66845,309158
20.67472,315836
20.68097,301086
20.68722,298540
20.69348,282082
20.69973,264197
20.70598,257322
20.71223,281670
20.71850,423066
20.72475,733246
20.73100,1123518
20.73727,1420908
20.74352,1351232
20.74977,1017039
20.75603,693050
20.76228,511675
20.76853,592061
20.77480,846951
20.78105,1093346
20.78730,1099664
20.79357,904386
20.79982,617223
20.80607,425777
20.81233,330353
20.81858,284800
20.82483,258463
20.83110,239697
20.83735,250880
20.84360,268059
20.84987,275960
20.85612,272427
20.86237,267882
20.86863,267824
20.87488,257182
20.88113,251894
20.88740,244003
20.89365,242703
20.89990,255412
20.90617,265968
20.91242,278847
20.91867,288693
20.92492,290291
20.93118,296094
20.93743,346535
20.94368,528645
20.94995,872838
20.95620,1282745
20.96245,1467704
20.96872,1316112
20.97497,906698
20.98122,594157
20.98748,444849
20.99373,365849
20.99998,323875
21.00625,309159
21.01250,344834
21.01875,437515
21.02502,514523
21.03127,525396
21.03752,475945
21.04378,394788
21.05003,367948
21.05628,346850
21.06255,331636
21.06880,308276
21.07505,303076
21.08132,328929
21.08757,371934
21.09382,401677
21.10008,372120
21.10633,333116
21.11258,279191
21.11885,253602
21.12510,247329
21.13135,262739
21.13760,257748
21.14387,239585
21.15012,232235
21.15637,222712
21.16263,212507
21.16888,211028
21.17513,215851
21.18140,220892
21.18765,228156
21.19390,229452
21.20017,231459
21.20642,229043
21.21267,233554
21.21893,238244
21.22518,244426
21.23143,247671
21.23770,249296
21.24395,274932
21.25020,310094
21.25647,347403
21.26272,338016
21.26897,311737
21.27523,289184
21.28148,322589
21.28773,396519
21.29400,472282
21.30025,483521
21.30650,434678
21.31277,345938
21.31902,277023
21.32527,249006
21.33153,246718
21.33778,256019
21.34403,256649
21.35030,250981
21.35655,236833
21.36280,240081
21.36905,289273
21.37532,385383
21.38157,475004
21.38782,494263
21.39408,419633
21.40033,320235
21.40658,248893
21.41285,214366
21.41910,201200
21.42535,198574
21.43162,194949
21.43787,199235
21.44412,207308
21.45038,221552
21.45663,255124
21.46288,317541
21.46915,452472
21.47540,579085
21.48165,643660
21.48792,563616
21.49417,447554
21.50042,373140
21.50668,344689
21.51293,339546
21.51918,329687
21.52545,283619
21.53170,238168
21.53795,206618
21.54422,187937
21.55047,184563
21.55672,185449
21.56298,176154
21.56923,178140
21.57548,193621
21.58173,209298
21.58800,225677
21.59425,248300
21.60050,292932
21.60677,348492
21.61302,374345
21.61927,343898
21.62553,273015
21.63178,216894
21.63803,191105
21.64430,172180
21.65055,162657
21.65680,153834
21.66307,150017
21.66932,147657
21.67557,149510
21.68183,160324
21.68808,169079
21.69433,177255
21.70060,188011
21.70685,177608
21.71310,169331
21.71937,157590
21.72562,150596
21.73187,150192
21.73813,154234
21.74438,150519
21.75063,151877
21.75690,154159
21.76315,169000
21.76940,177613
21.77567,176601
21.78192,180733
21.78817,180777
21.79442,194308
21.80068,210646
21.80693,219134
21.81318,214008
21.81945,208914
21.82570,202992
21.83195,201101
21.83822,197156
21.84447,204754
21.85072,211136
21.85698,226092
21.86323,240452
21.86948,260413
21.87575,295433
21.88200,301888
21.88825,289792
21.89452,238848
21.90077,206995
21.90702,198645
21.91328,203129
21.91953,230662
21.92578,235997
21.93205,227023
21.93830,214838
21.94455,201021
21.95082,198241
21.95707,195536
21.96332,182956
21.96958,174631
21.97583,163871
21.98208,162195
21.98835,168662
21.99460,168186
22.00085,174253
22.00712,176423
22.01337,183741
22.01962,181901
22.02587,188706
22.03213,191564
22.03838,212768
22.04463,255663
22.05090,297142
22.05715,329308
22.06340,367971
22.06967,391026
22.07592,392663
22.08217,369846
22.08843,338355
22.09468,303002
22.10093,275222
22.10720,254045
22.11345,240318
22.11970,232324
22.12597,227109
22.13222,232459
22.13847,249879
22.14473,262787
22.15098,253350
22.15723,240167
22.16350,222460
22.16975,215281
22.17600,213446
22.18227,211572
22.18852,216298
22.19477,228906
22.20103,236634
22.20728,239516
22.21353,232593
22.21980,217083
22.22605,206816
22.23230,194262
22.23855,197915
22.24482,202479
22.25107,222766
22.25732,274291
22.26358,369021
22.26983,472677
22.27608,529958
22.28235,505879
22.28860,423704
22.29485,351657
22.30112,307326
22.30737,288628
22.31362,269759
22.31988,257136
22.32613,253104
22.33238,264499
22.33865,285047
22.34490,281459
22.35115,272876
22.35742,288532
22.36367,360669
22.36992,524832
22.37618,775166
22.38243,900476
22.38868,788837
22.39495,565879
22.40120,391280
22.40745,291736
22.41372,251943
22.41997,245429
22.42622,246975
22.43248,258431
22.43873,289231
22.44498,352101
22.45125,404818
22.45750,492253
22.46375,617310
22.47000,797911
22.47627,890036
22.48252,793589
22.48877,617308
22.49503,444850
22.50128,362099
22.50753,313916
22.51380,293648
22.52005,277898
22.52630,256368
22.53257,252607
22.53882,254197
22.54507,303101
22.55133,417059
22.55758,540246
22.56383,641748
22.57010,647240
22.57635,580573
22.58260,477433
22.58887,390179
22.59512,316528
22.60137,282343
22.60763,263131
22.61388,260302
22.62013,262091
22.62640,283259
22.63265,294031
22.63890,297170
22.64517,303032
22.65142,315603
22.65767,329810
22.66393,324748
22.67018,308151
22.67643,296154
22.68268,307238
22.68895,319820
22.69520,348599
22.70145,359559
22.70772,334946
22.71397,301214
22.72022,271029
22.72648,253694
22.73273,245883
22.73898,245235
22.74525,248314
22.75150,251578
22.75775,254379
22.76402,258887
22.77027,259657
22.77652,270197
22.78278,299066
22.78903,399790
22.79528,836480
22.80155,2373465
22.80780,5761872
22.81405,1.080876E+07
22.82032,1.486849E+07
22.82657,1.727589E+07
22.83282,1.323191E+07
22.83908,6780331
22.84533,2920961
22.85158,1365094
22.85785,785556
22.86410,564572
22.87035,465675
22.87662,417803
22.88287,379877
22.88912,356660
22.89538,331111
22.90163,321676
22.90788,314672
22.91413,312437
22.92040,297160
22.92665,294633
22.93290,284920
22.93917,274546
22.94542,282401
22.95167,282126
22.95793,282133
22.96418,274605
22.97043,273505
22.97670,258351
22.98295,264383
22.98920,271534
22.99547,281474
23.00172,281311
23.00797,281751
23.01423,266477
23.02048,250942
23.02673,240330
23.03300,230512
23.03925,228878
23.04550,229291
23.05177,231271
23.05802,243811
23.06427,254806
23.07053,331912
23.07678,504256
23.08303,842068
23.08930,1154568
23.09555,1261953
23.10180,1098289
23.10807,820478
23.11432,547968
23.12057,386140
23.12682,303754
23.13308,266966
23.13933,252993
23.14558,239386
23.15185,237828
23.15810,224375
23.16435,216483
23.17062,218210
23.17687,207268
23.18312,206828
23.18938,212674
23.19563,209668
23.20188,220473
23.20815,218718
23.21440,222664
23.22065,216394
23.22692,211164
23.23317,204277
23.23942,201436
23.24568,202451
23.25193,203331
23.25818,209139
23.26445,213334
23.27070,212535
23.27695,208133
23.28322,200025
23.28947,193612
23.29572,191390
23.30198,206273
23.30823,249054
23.31448,325256
23.32075,466181
23.32700,625871
23.33325,659393
23.33950,575445
23.34577,448561
23.35202,335082
23.35827,272403
23.36453,240895
23.37078,222910
23.37703,209887
23.38330,206454
23.38955,201315
23.39580,206247
23.40207,205683
23.40832,208541
23.41457,206096
23.42083,204045
23.42708,204725
23.43333,201225
23.43960,196581
23.44585,200207
23.45210,212090
23.45837,221473
23.46462,233817
23.47087,246936
23.47713,257252
23.48338,273369
23.48963,295834
23.49590,335405
23.50215,366619
23.50840,406063
23.51467,452549
23.52092,559050
23.52717,708856
23.53343,748522
23.53968,688560
23.54593,543627
23.55220,406424
23.55845,326061
23.56470,287910
23.57095,289416
23.57722,306300
23.58347,370897
23.58972,439153
23.59598,486675
23.60223,469921
23.60848,413826
23.61475,352236
23.62100,297825
23.62725,268749
23.63352,242767
23.63977,239265
23.64602,236975
23.65228,241271
23.65853,235853
23.66478,224728
23.67105,215390
23.67730,209028
23.68355,210942
23.68982,218220
23.69607,235875
23.70232,257346
23.70858,259795
23.71483,268530
23.72108,278733
23.72735,337050
23.73360,447147
23.73985,615903
23.74612,735941
23.75237,711790
23.75862,557774
23.76488,411086
23.77113,314572
23.77738,271431
23.78363,254454
23.78990,243241
23.79615,245154
23.80240,247524
23.80867,245283
23.81492,255216
23.82117,264514
23.82743,284822
23.83368,292983
23.83993,296060
23.84620,275946
23.85245,265496
23.85870,249389
23.86497,240975
23.87122,240518
23.87747,248530
23.88373,265905
23.88998,314038
23.89623,377086
23.90250,454529
23.90875,487189
23.91500,474833
23.92127,409249
23.92752,349231
23.93377,310485
23.94003,291243
23.94628,284783
23.95253,287093
23.95880,335830
23.96505,503747
23.97130,1041469
23.97757,2216680
23.98382,4415149
23.99007,7721017
23.99633,1.246556E+07
24.00258,1.898396E+07
24.00883,2.634663E+07
24.01508,2.917844E+07
24.02135,2.564362E+07
24.02760,1.831122E+07
24.03385,9657048
24.04012,4657790
24.04637,2468383
24.05262,1594679
24.05888,1160397
24.06513,883709
24.07138,735204
24.07765,692278
24.08390,685044
24.09015,706659
24.09642,687285
24.10267,716787
24.10892,986609
24.11518,1779851
24.12143,3276328
24.12768,5351714
24.13395,6318979
24.14020,5670744
24.14645,4050574
24.15272,2484401
24.15897,1462378
24.16522,930337
24.17148,676713
24.17773,544099
24.18398,476225
24.19025,459741
24.19650,489518
24.20275,577511
24.20902,899699
24.21527,1997152
24.22152,4669019
24.22777,9832122
24.23403,1.711313E+07
24.24028,2.585537E+07
24.24653,3.334438E+07
24.25280,3.767118E+07
24.25905,3.997381E+07
24.26530,4.132184E+07
24.27157,4.154434E+07
24.27782,4.096274E+07
24.28407,3.95084E+07
24.29033,2.086869E+07
24.29658,5875737
24.30283,2720045
24.30910,1790399
24.31535,1358965
24.32160,1118097
24.32787,953890
24.33412,844959
24.34037,761766
24.34663,703282
24.35288,664311
24.35913,636696
24.36540,624400
24.37165,623315
24.37790,657125
24.38417,699757
24.39042,706256
24.39667,674670
24.40293,619242
24.40918,552828
24.41543,508529
24.42170,475375
24.42795,461007
24.43420,512679
24.44045,648525
24.44672,848275
24.45297,1113305
24.45922,1233732
24.46548,1149385
24.47173,932593
24.47798,719196
24.48425,574542
24.49050,475629
24.49675,417619
24.50302,379141
24.50927,350589
24.51552,333996
24.52178,323114
24.52803,311720
24.53428,305757
24.54055,293027
24.54680,287644
24.55305,294244
24.55932,288068
24.56557,286876
24.57182,281300
24.57808,271747
24.58433,264340
24.59058,266841
24.59685,264755
24.60310,265148
24.60935,253445
24.61562,251885
24.62187,243363
24.62812,237210
24.63438,231776
24.64063,239473
24.64688,244745
24.65315,244780
24.65940,240083
24.66565,234142
24.67190,236704
24.67817,260771
24.68442,309583
24.69067,400687
24.69693,521963
24.70318,563124
24.70943,520029
24.71570,434850
24.72195,349495
24.72820,291624
24.73447,258674
24.74072,236724
24.74697,231097
24.75323,229426
24.75948,225482
24.76573,214453
24.77200,216414
24.77825,217912
24.78450,222329
24.79077,248231
24.79702,267756
24.80327,272705
24.80953,260900
24.81578,239919
24.82203,220693
24.82830,205978
24.83455,192609
24.84080,193031
24.84707,185330
24.85332,185624
24.85957,179607
24.86583,186776
24.87208,192503
24.87833,205243
24.88458,211558
24.89085,223285
24.89710,233051
24.90335,247762
24.90962,242905
24.91587,233434
24.92212,219863
24.92838,216218
24.93463,220460
24.94088,213425
24.94715,207392
24.95340,201961
24.95965,207822
24.96592,216089
24.97217,218356
24.97842,214763
24.98468,204664
24.99093,198198
24.99718,200210
25.00345,195448
25.00970,192498
25.01595,189405
25.02222,189266
25.02847,197870
25.03472,206419
25.04098,214433
25.04723,216305
25.05348,217445
25.05975,207288
25.06600,196629
25.07225,195404
25.07852,190314
25.08477,195501
25.09102,193289
25.09727,200698
25.10353,192865
25.10978,197766
25.11603,195618
25.12230,194813
25.12855,198149
25.13480,209452
25.14107,225299
25.14732,235270
25.15357,223651
25.15983,209092
25.16608,186205
25.17233,180474
25.17860,179166
25.18485,183029
25.19110,192185
25.19737,202056
25.20362,213848
25.20987,207688
25.21613,194338
25.22238,183601
25.22863,178047
25.23490,168777
25.24115,167270
25.24740,166856
25.25367,166455
25.25992,163767
25.26617,162360
25.27243,165377
25.27868,167376
25.28493,175007
25.29120,204472
25.29745,265775
25.30370,341620
25.30997,393239
25.31622,393418
25.32247,360499
25.32872,302235
25.33498,254609
25.34123,225563
25.34748,210946
25.35375,198526
25.36000,185097
25.36625,182839
25.37252,184859
25.37877,182597
25.38502,180322
25.39128,184849
25.39753,192919
25.40378,216465
25.41005,260910
25.41630,325306
25.42255,361202
25.42882,365330
25.43507,326238
25.44132,287832
25.44758,264011
25.45383,240767
25.46008,235160
25.46635,214642
25.47260,215381
25.47885,204148
25.48512,200144
25.49137,209013
25.49762,237131
25.50388,279796
25.51013,345881
25.51638,401498
25.52265,425645
25.52890,397540
25.53515,369359
25.54140,354964
25.54767,395976
25.55392,443086
25.56017,471623
25.56643,429570
25.57268,363465
25.57893,306263
25.58520,256026
25.59145,233787
25.59770,215730
25.60397,203796
25.61022,202899
25.61647,196484
25.62273,192975
25.62898,190695
25.63523,186211
25.64150,179996
25.64775,180026
25.65400,171416
25.66027,165660
25.66652,165626
25.67277,159946
25.67903,160764
25.68528,165598
25.69153,164340
25.69780,166608
25.70405,161206
25.71030,159616
25.71657,156519
25.72282,157946
25.72907,151942
25.73533,148792
25.74158,149336
25.74783,148275
25.75410,151890
25.76035,149651
25.76660,151178
25.77285,152772
25.77912,153301
25.78537,152698
25.79162,150603
25.79788,150703
25.80413,148162
25.81038,145986
25.81665,144308
25.82290,143259
25.82915,148135
25.83542,143594
25.84167,141763
25.84792,143220
25.85418,142563
25.86043,145941
25.86668,146852
25.87295,145387
25.87920,150394
25.88545,149001
25.89172,151561
25.89797,150887
25.90422,148216
25.91048,143932
25.91673,146010
25.92298,146677
25.92925,146889
25.93550,140764
25.94175,146676
25.94802,142453
25.95427,144416
25.96052,146638
25.96678,142929
25.97303,146772
25.97928,145795
25.98553,149951
25.99180,157641
25.99805,156306
26.00430,153649
26.01057,151841
26.01682,153914
26.02307,148582
26.02933,147851
26.03558,151566
26.04183,148526
26.04810,151530
26.05435,155987
26.06060,159056
26.06687,159154
26.07312,157349
26.07937,161744
26.08563,158224
26.09188,153051
26.09813,148070
26.10440,147713
26.11065,146754
26.11690,145151
26.12317,148268
26.12942,149136
26.13567,147721
26.14193,145706
26.14818,146628
26.15443,146137
26.16070,146803
26.16695,144605
26.17320,141591
26.17947,148688
26.18572,148076
26.19197,147158
26.19823,149076
26.20448,145114
26.21073,146164
26.21698,143383
26.22325,145232
26.22950,143574
26.23575,143911
26.24202,145277
26.24827,143340
26.25452,143554
26.26078,145441
26.26703,144745
26.27328,141893
26.27955,144352
26.28580,142391
26.29205,140219
26.29832,148565
26.30457,149694
26.31082,144139
26.31708,147025
26.32333,150753
26.32958,152247
26.33585,152400
26.34210,153020
26.34835,158557
26.35462,151047
26.36087,152443
26.36712,159403
26.37338,180578
26.37963,234289
26.38588,306825
26.39215,387945
26.39840,415749
26.40465,387814
26.41092,312120
26.41717,241589
26.42342,202046
26.42967,179846
26.43593,173987
26.44218,165648
26.44843,166376
26.45470,161507
26.46095,159767
26.46720,162342
26.47347,162067
26.47972,163822
26.48597,160177
26.49223,161790
26.49848,163608
26.50473,163179
26.51100,164022
26.51725,166757
26.52350,164247
26.52977,162200
26.53602,172988
26.54227,180957
26.54853,181775
26.55478,184746
26.56103,175713
26.56730,172389
26.57355,163316
26.57980,162769
26.58607,161085
26.59232,160501
26.59857,161214
26.60483,165064
26.61108,164746
26.61733,170733
26.62360,174960
26.62985,175117
26.63610,173124
26.64237,173658
26.64862,170791
26.65487,172463
26.66112,188147
26.66738,232092
26.67363,285000
26.67988,331329
26.68615,357960
26.69240,340866
26.69865,310115
26.70492,282149
26.71117,271542
26.71742,273419
26.72368,271196
26.72993,255978
26.73618,232569
26.74245,218066
26.74870,210342
26.75495,209498
26.76122,217684
26.76747,243307
26.77372,286511
26.77998,330310
26.78623,363402
26.79248,357513
26.79875,338446
26.80500,318302
26.81125,295424
26.81752,284356
26.82377,268444
26.83002,275168
26.83628,325979
26.84253,439120
26.84878,588095
26.85505,667009
26.86130,647410
26.86755,522421
26.87380,408701
26.88007,328426
26.88632,290556
26.89257,289337
26.89883,310166
26.90508,361540
26.91133,474706
26.91760,859578
26.92385,1889518
26.93010,4162588
26.93637,8083489
26.94262,1.320237E+07
26.94887,1.919847E+07
26.95513,2.121385E+07
26.96138,1.688323E+07
26.96763,9186182
26.97390,4636096
26.98015,2714024
26.98640,1767562
26.99267,1238131
26.99892,898642
27.00517,696620
27.01143,584057
27.01768,518588
27.02393,536600
27.03020,605726
27.03645,695585
27.04270,721428
27.04897,660088
27.05522,555981
27.06147,465249
27.06773,419742
27.07398,391417
27.08023,378646
27.08648,348886
27.09275,326013
27.09900,304802
27.10525,289380
27.11152,272250
27.11777,269457
27.12402,257303
27.13028,267151
27.13653,277146
27.14278,304321
27.14905,337231
27.15530,355915
27.16155,344018
27.16782,318248
27.17407,294551
27.18032,273433
27.18658,272317
27.19283,271184
27.19908,265352
27.20535,255656
27.21160,251594
27.21785,251661
27.22412,251424
27.23037,247815
27.23662,244931
27.24288,245317
27.24913,241089
27.25538,242225
27.26165,241774
27.26790,249545
27.27415,251986
27.28042,241828
27.28667,239396
27.29292,239153
27.29918,230211
27.30543,227843
27.31168,236629
27.31793,228554
27.32420,225984
27.33045,229606
27.33670,222928
27.34297,222034
27.34922,225725
27.35547,228284
27.36173,223612
27.36798,227935
27.37423,234802
27.38050,236214
27.38675,237440
27.39300,241777
27.39927,235972
27.40552,237933
27.41177,240030
27.41803,251679
27.42428,256303
27.43053,252937
27.43680,252633
27.44305,246733
27.44930,239540
27.45557,233412
27.46182,225458
27.46807,221213
27.47433,212762
27.48058,214579
27.48683,214467
27.49310,219012
27.49935,215468
27.50560,212823
27.51187,212677
27.51812,206913
27.52437,211888
27.53062,207605
27.53688,207986
27.54313,213642
27.54938,215570
27.55565,212377
27.56190,209228
27.56815,214766
27.57442,203716
27.58067,208185
27.58692,213679
27.59318,207916
27.59943,207069
27.60568,212999
27.61195,210870
27.61820,213483
27.62445,209401
27.63072,207744
27.63697,210026
27.64322,211479
27.64948,208826
27.65573,214035
27.66198,210498
27.66825,216274
27.67450,214126
27.68075,217385
27.68702,216774
27.69327,220901
27.69952,223452
27.70578,217678
27.71203,217345
27.71828,216975
27.72455,219474
27.73080,230828
27.73705,230412
27.74330,230483
27.74957,221178
27.75582,230061
27.76207,223941
27.76833,226261
27.77458,228573
27.78083,226297
27.78710,224424
27.79335,228240
27.79960,221941
27.80587,221047
27.81212,223191
27.81837,223886
27.82463,216829
27.83088,220711
27.83713,216061
27.84340,223410
27.84965,226301
27.85590,237289
27.86217,269970
27.86842,309361
27.87467,364873
27.88093,389033
27.88718,376029
27.89343,351389
27.89970,308298
27.90595,282483
27.91220,270785
27.91847,258985
27.92472,254755
27.93097,252833
27.93723,244103
27.94348,249222
27.94973,251119
27.95600,244028
27.96225,247700
27.96850,246381
27.97475,243599
27.98102,243465
27.98727,239424
27.99352,244497
27.99978,243306
28.00603,253721
28.01228,249526
28.01855,241248
28.02480,245133
28.03105,246069
28.03732,240238
28.04357,245135
28.04982,235999
28.05608,239218
28.06233,232930
28.06858,238285
28.07485,238434
28.08110,234895
28.08735,239261
28.09362,233924
28.09987,231379
28.10612,235082
28.11238,238818
28.11863,234742
28.12488,240981
28.13115,233667
28.13740,236449
28.14365,235406
28.14992,231750
28.15617,241520
28.16242,232444
28.16868,228932
28.17493,239474
28.18118,237499
28.18743,237839
28.19370,238302
28.19995,239611
28.20620,232340
28.21247,232442
28.21872,239234
28.22497,238939
28.23123,228896
28.23748,237953
28.24373,230865
28.25000,240234
28.25625,234556
28.26250,232424
28.26877,230080
28.27502,241078
28.28127,230594
28.28753,233685
28.29378,235828
28.30003,234539
28.30630,229686
28.31255,238454
28.31880,240074
28.32507,249949
28.33132,241840
28.33757,243825
28.34383,243869
28.35008,250046
28.35633,262079
28.36260,268685
28.36885,267800
28.37510,274863
28.38137,277252
28.38762,280452
28.39387,286019
28.40012,293772
28.40638,295627
28.41263,300501
28.41888,310855
28.42515,326341
28.43140,318648
28.43765,334722
28.44392,341526
28.45017,331792
28.45642,336081
28.46268,325815
28.46893,319403
28.47518,324473
28.48145,330197
28.48770,316854
28.49395,324436
28.50022,311200
28.50647,308542
28.51272,308758
28.51898,311634
28.52523,295250
28.53148,294075
28.53775,284045
28.54400,274841
28.55025,271723
28.55652,269674
28.56277,264649
28.56902,264877
28.57528,256988
28.58153,255074
28.58778,253185
28.59405,254111
28.60030,252380
28.60655,256105
28.61282,250518
28.61907,255935
28.62532,246763
28.63157,243195
28.63783,247428
28.64408,247622
28.65033,245970
28.65660,254258
28.66285,250328
28.66910,256051
28.67537,245531
28.68162,245105
28.68787,249359
28.69413,240047
28.70038,251723
28.70663,241750
28.71290,239093
28.71915,247515
28.72540,248344
28.73167,250839
28.73792,252325
28.74417,258082
28.75043,248550
28.75668,247819
28.76293,252955
28.76920,242742
28.77545,246972
28.78170,243629
28.78797,238251
28.79422,244724
28.80047,240422
28.80673,239910
28.81298,242262
28.81923,235992
28.82550,241905
28.83175,234845
28.83800,235623
28.84427,239496
28.85052,242585
28.85677,235969
28.86302,235445
28.86928,234239
28.87553,239748
28.88178,234444
28.88805,236339
28.89430,233727
28.90055,233720
28.90682,236843
28.91307,240073
28.91932,237785
28.92558,231838
28.93183,235223
28.93808,239437
28.94435,236396
28.95060,231729
28.95685,228906
28.96312,232453
28.96937,232516
28.97562,235824
28.98188,239258
28.98813,226447
28.99438,234533
29.00065,230204
29.00690,239633
29.01315,241104
29.01942,232423
29.02567,233464
29.03192,239471
29.03818,231568
29.04443,232009
29.05068,234635
29.05695,234786
29.06320,240242
29.06945,228600
29.07570,235895
29.08197,236353
29.08822,234004
29.09447,227463
29.10073,238968
29.10698,227992
29.11323,236860
29.11950,235746
29.12575,225673
29.13200,226158
29.13827,225711
29.14452,228292
29.15077,230471
29.15703,231933
29.16328,221217
29.16953,230957
29.17580,225720
29.18205,224982
29.18830,228379
29.19457,231186
29.20082,231157
29.20707,235532
29.21333,232579
29.21958,234232
29.22583,233902
29.23210,242560
29.23835,263677
29.24460,284427
29.25087,309266
29.25712,326768
29.26337,329253
29.26963,327539
29.27588,307526
29.28213,288673
29.28840,268142
29.29465,256710
29.30090,248634
29.30715,243526
29.31342,251105
29.31967,243166
29.32592,239798
29.33218,241545
29.33843,240539
29.34468,241910
29.35095,240225
29.35720,239719
29.36345,239021
29.36972,235254
29.37597,234521
29.38222,241657
29.38848,238105
29.39473,237445
29.40098,237437
29.40725,228187
29.41350,235257
29.41975,237881
29.42602,231075
29.43227,228524
29.43852,230948
29.44478,229393
29.45103,230694
29.45728,227533
29.46355,226902
29.46980,236396
29.47605,225352
29.48232,227870
29.48857,227957
29.49482,225950
29.50108,222466
29.50733,224817
29.51358,233913
29.51983,220337
29.52610,226918
29.53235,232103
29.53860,221656
29.54487,220968
29.55112,223630
29.55737,222072
29.56363,219103
29.56988,223950
29.57613,228026
29.58240,231165
29.58865,231612
29.59490,231274
29.60117,222428
29.60742,226673
29.61367,221248
29.61993,219880
29.62618,223933
29.63243,228533
29.63870,221346
29.64495,230503
29.65120,221295
29.65747,222993
29.66372,219777
29.66997,219246
29.67623,222567
29.68248,228654
29.68873,220600
29.69500,218191
29.70125,224316
29.70750,223846
29.71377,219386
29.72002,218553
29.72627,219221
29.73252,221079
29.73878,222746
29.74503,216431
29.75128,219404
29.75755,225055
29.76380,216237
29.77005,220654
29.77632,228172
29.78257,227546
29.78882,222040
29.79508,218847
29.80133,217398
29.80758,216563
29.81385,223248
29.82010,218299
29.82635,225246
29.83262,218089
29.83887,221586
29.84512,216667
29.85138,213143
29.85763,212646
29.86388,215956
29.87015,215455
29.87640,213234
29.88265,216386
29.88892,221417
29.89517,217228
29.90142,221981
29.90768,216184
29.91393,219871
29.92018,214962
29.92645,225088
29.93270,219102
29.93895,222205
29.94522,220609
29.95147,211795
29.95772,213997
29.96397,213721
29.97023,211257
29.97648,215762
29.98273,211486
29.98900,213887
29.99525,220802
30.00150,223350
30.00777,217455
30.01402,212956
30.02027,211381
30.02653,215343
30.03278,218311
30.03903,217539
30.04530,211200
30.05155,212475
30.05780,221316
30.06407,217363
30.07032,216716
30.07657,217945
30.08283,215962
30.08908,218510
30.09533,217704
30.10160,210339
30.10785,216166
30.11410,218469
30.12037,211520
30.12662,209235
30.13287,214907
30.13913,212842
30.14538,207843
30.15163,217361
30.15790,220941
30.16415,208777
30.17040,215815
30.17665,212890
30.18292,217105
30.18917,209870
30.19542,206938
30.20168,210715
30.20793,215486
30.21418,213312
30.22045,215738
30.22670,210076
30.23295,207561
30.23922,210613
30.24547,210336
30.25172,207143
30.25798,214505
30.26423,213954
30.27048,206376
30.27675,208238
30.28300,212348
30.28925,210739
30.29552,204326
30.30177,207145
30.30802,208808
30.31428,213295
30.32053,208883
30.32678,211139
30.33305,208925
30.33930,208557
30.34555,209480
30.35182,206954
30.35807,207694
30.36432,212009
30.37058,211375
30.37683,211934
30.38308,207558
30.38933,204740
30.39560,205709
30.40185,207527
30.40810,208723
30.41437,211853
30.42062,202313
30.42687,208260
30.43313,204847
30.43938,206072
30.44563,208806
30.45190,206577
30.45815,210204
30.46440,205042
30.47067,208901
30.47692,207077
30.48317,208789
30.48943,204196
30.49568,210906
30.50193,204306
30.50820,206087
30.51445,207189
30.52070,212295
30.52697,209740
30.53322,205874
30.53947,209761
30.54573,205175
30.55198,203265
30.55823,204234
30.56450,205534
30.57075,210518
30.57700,201253
30.58327,203605
30.58952,199627
30.59577,199824
30.60203,201788
30.60828,201920
30.61453,208474
30.62078,207216
30.62705,199856
30.63330,204203
30.63955,205618
30.64582,205225
30.65207,204516
30.65832,202189
30.66458,206229
30.67083,202800
30.67708,203415
30.68335,202003
30.68960,205613
30.69585,207929
30.70212,211591
30.70837,215748
30.71462,220231
30.72088,225253
30.72713,230216
30.73338,221493
30.73965,225717
30.74590,220807
30.75215,213675
30.75842,206074
30.76467,203894
30.77092,206677
30.77718,204301
30.78343,203751
30.78968,207085
30.79595,205580
30.80220,207976
30.80845,201126
30.81472,211409
30.82097,200433
30.82722,206779
30.83347,204500
30.83973,203241
30.84598,205832
30.85223,208950
30.85850,201188
30.86475,207891
30.87100,201413
30.87727,202771
30.88352,207738
30.88977,201026
30.89603,201325
30.90228,208784
30.90853,204384
30.91480,198117
30.92105,200790
30.92730,206083
30.93357,208330
30.93982,204017
30.94607,203424
30.95233,208592
30.95858,203083
30.96483,205474
30.97110,207916
30.97735,203131
30.98360,200902
30.98987,203247
30.99612,206047
31.00237,215645
31.00863,223919
31.01488,225683
31.02113,232583
31.02740,248843
31.03365,244391
31.03990,246540
31.04617,248655
31.05242,235196
31.05867,226999
31.06492,219595
31.07118,218527
31.07743,211006
31.08368,210988
31.08995,211697
31.09620,204747
31.10245,204129
31.10872,202587
31.11497,211785
31.12122,208115
31.12748,207323
31.13373,197666
31.13998,201635
31.14625,208745
31.15250,203496
31.15875,200145
31.16502,199551
31.17127,207145
31.17752,198823
31.18378,201765
31.19003,201873
31.19628,198434
31.20255,200244
31.20880,203047
31.21505,204368
31.22132,199703
31.22757,199765
31.23382,206730
31.24008,197050
31.24633,198107
31.25258,199228
31.25885,195365
31.26510,198882
31.27135,205288
31.27760,199935
31.28387,198035
31.29012,196123
31.29637,197646
31.30263,196975
31.30888,196552
31.31513,201283
31.32140,199961
31.32765,202670
31.33390,197431
31.34017,195642
31.34642,197655
31.35267,196618
31.35893,195404
31.36518,201712
31.37143,200264
31.37770,195967
31.38395,198234
31.39020,198147
31.39647,201870
31.40272,199470
31.40897,195878
31.41523,206390
31.42148,198641
31.42773,200393
31.43400,206555
31.44025,200160
31.44650,208342
31.45277,198418
31.45902,201112
31.46527,200218
31.47153,206653
31.47778,206547
31.48403,201921
31.49030,197603
31.49655,200792
31.50280,205246
31.50905,205749
31.51532,197780
31.52157,204100
31.52782,199413
31.53408,208829
31.54033,200639
31.54658,200678
31.55285,199477
31.55910,201087
31.56535,197011
31.57162,198707
31.57787,198233
31.58412,197433
31.59038,196423
31.59663,195970
31.60288,195355
31.60915,198573
31.61540,191443
31.62165,195744
31.62792,192616
31.63417,193448
31.64042,193786
31.64668,191391
31.65293,198921
31.65918,191765
31.66545,197157
31.67170,191196
31.67795,194970
31.68422,189634
31.69047,197256
31.69672,189470
31.70298,192802
31.70923,191057
31.71548,194419
31.72173,199107
31.72800,192506
31.73425,197345
31.74050,188167
31.74677,191803
31.75302,190530
31.75927,193957
31.76553,188000
31.77178,192558
31.77803,197405
31.78430,195580
31.79055,189642
31.79680,188268
31.80307,189179
31.80932,188082
31.81557,190363
31.82183,193287
31.82808,193428
31.83433,190494
31.84060,186815
31.84685,193948
31.85310,195528
31.85937,194706
31.86562,189408
31.87187,189906
31.87813,186957
31.88438,189823
31.89063,185864
31.89690,190261
31.90315,186810
31.90940,192487
31.91567,194000
31.92192,195061
31.92817,192524
31.93443,187286
31.94068,188504
31.94693,195248
31.95318,188213
31.95945,188489
31.96570,188238
31.97195,193197
31.97822,187709
31.98447,189280
31.99072,190661
31.99698,192337
32.00323,193516
32.00948,186840
32.01575,185123
32.02200,188339
32.02825,192888
32.03452,188733
32.04077,186234
32.04702,192013
32.05328,181516
32.05953,184076
32.06578,191336
32.07205,192343
32.07830,185992
32.08455,181598
32.09082,185992
32.09707,188888
32.10332,184186
32.10958,185982
32.11583,184927
32.12208,186244
32.12835,184351
32.13460,186910
32.14085,191568
32.14712,184944
32.15337,185661
32.15962,180721
32.16587,192951
32.17213,184370
32.17838,188594
32.18463,186488
32.19090,186190
32.19715,186784
32.20340,183860
32.20967,186800
32.21592,182489
32.22217,190387
32.22843,185315
32.23468,184065
32.24093,184430
32.24720,185510
32.25345,180440
32.25970,182359
32.26597,184889
32.27222,182807
32.27847,185625
32.28473,182711
32.29098,190681
32.29723,188298
32.30350,186036
32.30975,187570
32.31600,191875
32.32227,184274
32.32852,183169
32.33477,189996
32.34103,188741
32.34728,189205
32.35353,182131
32.35980,189340
32.36605,184590
32.37230,187875
32.37855,182851
32.38482,189398
32.39107,178479
32.39732,179790
32.40358,182860
32.40983,184477
32.41608,184233
32.42235,178625
32.42860,183680
32.43485,178733
32.44112,181356
32.44737,183032
32.45362,179960
32.45988,181214
32.46613,178589
32.47238,180248
32.47865,178896
32.48490,183457
32.49115,188234
32.49742,183508
32.50367,182031
32.50992,180649
32.51618,177405
32.52243,180464
32.52868,180123
32.53495,181071
32.54120,179711
32.54745,186221
32.55372,178341
32.55997,181642
32.56622,180181
32.57248,183106
32.57873,175032
32.58498,186175
32.59125,186371
32.59750,176828
32.60375,178176
32.61000,174970
32.61627,179597
32.62252,178128
32.62877,187323
32.63503,184199
32.64128,179742
32.64753,180415
32.65380,184343
32.66005,186024
32.66630,183349
32.67257,179257
32.67882,176328
32.68507,180699
32.69133,178843
32.69758,180664
32.70383,179016
32.71010,181383
32.71635,180213
32.72260,177694
32.72887,180540
32.73512,176064
32.74137,182098
32.74763,178603
32.75388,176587
32.76013,179065
32.76640,179561
32.77265,181926
32.77890,179109
32.78517,176643
32.79142,177777
32.79767,177795
32.80393,177133
32.81018,180865
32.81643,176087
32.82268,184395
32.82895,177500
32.83520,175165
32.84145,182730
32.84772,176997
32.85397,174910
32.86022,180378
32.86648,182858
32.87273,177123
32.87898,176636
32.88525,176459
32.89150,173447
32.89775,177641
32.90402,177429
32.91027,179855
32.91652,178347
32.92278,175597
32.92903,179538
32.93528,180507
32.94155,179861
32.94780,174299
32.95405,179708
32.96032,173138
32.96657,176019
32.97282,176666
32.97908,176541
32.98533,179412
32.99158,174891
32.99785,173587
33.00410,172546
33.01035,181074
33.01662,174690
33.02287,174154
33.02912,176838
33.03537,178373
33.04163,179431
33.04788,174622
33.05413,179584
33.06040,174885
33.06665,178079
33.07290,179670
33.07917,175205
33.08542,174825
33.09167,174777
33.09793,178814
33.10418,176374
33.11043,170051
33.11670,177318
33.12295,175644
33.12920,177445
33.13547,175416
33.14172,174643
33.14797,177193
33.15423,172276
33.16048,172515
33.16673,182573
33.17300,180778
33.17925,175410
33.18550,181115
33.19177,180332
33.19802,183061
33.20427,183596
33.21053,192176
33.21678,186766
33.22303,186465
33.22930,183947
33.23555,183685
33.24180,185044
33.24807,177015
33.25432,176162
33.26057,179643
33.26682,176365
33.27308,176669
33.27933,176076
33.28558,176072
33.29185,177356
33.29810,173906
33.30435,171842
33.31062,171734
33.31687,171114
33.32312,177361
33.32938,171356
33.33563,176707
33.34188,169018
33.34815,176605
33.35440,171722
33.36065,173425
33.36692,177975
33.37317,175438
33.37942,178522
33.38568,179253
33.39193,184125
33.39818,183546
33.40445,188182
33.41070,188425
33.41695,187012
33.42322,190005
33.42947,183775
33.43572,187080
33.44198,181711
33.44823,180833
33.45448,177558
33.46075,179166
33.46700,177728
33.47325,171943
33.47950,179424
33.48577,177526
33.49202,171413
33.49827,177026
33.50453,172477
33.51078,168952
33.51703,168913
33.52330,169749
33.52955,178666
33.53580,171879
33.54207,172881
33.54832,174476
33.55457,170947
33.56083,174494
33.56708,173786
33.57333,170023
33.57960,170095
33.58585,170756
33.59210,177739
33.59837,174800
33.60462,170042
33.61087,168928
33.61713,166664
33.62338,171380
33.62963,174462
33.63590,174197
33.64215,165041
33.64840,172945
33.65467,168760
33.66092,169134
33.66717,167494
33.67343,170422
33.67968,172178
33.68593,170616
33.69220,170860
33.69845,166734
33.70470,170688
33.71095,171128
33.71722,166616
33.72347,164642
33.72972,170335
33.73598,173176
33.74223,165796
33.74848,167375
33.75475,171813
33.76100,166907
33.76725,171486
33.77352,170337
33.77977,167183
33.78602,171421
33.79228,167429
33.79853,165368
33.80478,167999
33.81105,168019
33.81730,168692
33.82355,169078
33.82982,165466
33.83607,175897
33.84232,170038
33.84858,167688
33.85483,168308
33.86108,167246
33.86735,164069
33.87360,168960
33.87985,170587
33.88612,165778
33.89237,167131
33.89862,161296
33.90488,171199
33.91113,165975
33.91738,165789
33.92363,165032
33.92990,166984
33.93615,169626
33.94240,169608
33.94867,163429
33.95492,164652
33.96117,169066
33.96743,162287
33.97368,168059
33.97993,172850
33.98620,163865
33.99245,161841
33.99870,164107
34.00497,172802
34.01122,164893
34.01747,168739
34.02373,165251
34.02998,172036
34.03623,161996
34.04250,168139
34.04875,168818
34.05500,164651
34.06127,168497
34.06752,164893
34.07377,167576
34.08003,164944
34.08628,166549
34.09253,163498
34.09880,163594
34.10505,166626
34.11130,167463
34.11757,163045
34.12382,164274
34.13007,166519
34.13633,165351
34.14258,167360
34.14883,167708
34.15508,162829
34.16135,163432
34.16760,164423
34.17385,163101
34.18012,168089
34.18637,160036
34.19262,160231
34.19888,166375
34.20513,162584
34.21138,164577
34.21765,162750
34.22390,164520
34.23015,161147
34.23642,165010
34.24267,162252
34.24892,163615
34.25518,162460
34.26143,159169
34.26768,162402
34.27395,160821
34.28020,162526
34.28645,163868
34.29272,164031
34.29897,159227
34.30522,164174
34.31148,160613
34.31773,166198
34.32398,161004
34.33025,159809
34.33650,160997
34.34275,164731
34.34902,169340
34.35527,163972
34.36152,163745
34.36777,163136
34.37403,165982
34.38028,160046
34.38653,161468
34.39280,166497
34.39905,159722
34.40530,159953
34.41157,162408
34.41782,161206
34.42407,160849
34.43033,161939
34.43658,165449
34.44283,161211
34.44910,160999
34.45535,164961
34.46160,165433
34.46787,165621
34.47412,157381
34.48037,159841
34.48663,166254
34.49288,164207
34.49913,161393
34.50540,159208
34.51165,162404
34.51790,160949
34.52417,159938
34.53042,166328
34.53667,163072
34.54293,162226
34.54918,155611
34.55543,158642
34.56170,162076
34.56795,160800
34.57420,161202
34.58047,160769
34.58672,160162
34.59297,156353
34.59922,163862
34.60548,162797
34.61173,167064
34.61798,164955
34.62425,158627
34.63050,157714
34.63675,163648
34.64302,160923
34.64927,158187
34.65552,164081
34.66178,160240
34.66803,163595
34.67428,165522
34.68055,159357
34.68680,159564
34.69305,159809
34.69932,160760
34.70557,159115
34.71182,167157
34.71808,159323
34.72433,158717
34.73058,162252
34.73685,162438
34.74310,160236
34.74935,161539
34.75562,156208
34.76187,160669
34.76812,158821
34.77438,158443
34.78063,156659
34.78688,156825
34.79315,161676
34.79940,156611
34.80565,161305
34.81190,159490
34.81817,156946
34.82442,159102
34.83067,154950
34.83693,158620
34.84318,161594
34.84943,159096
34.85570,156509
34.86195,163658
34.86820,156708
34.87447,153428
34.88072,154164
34.88697,156348
34.89323,157460
34.89948,156074
34.90573,157390
34.91200,159828
34.91825,159111
34.92450,159902
34.93077,153958
34.93702,155011
34.94327,162286
34.94953,157061
34.95578,155358
34.96203,157139
34.96830,157486
34.97455,156660
34.98080,155059
34.98707,162493
34.99332,160883
34.99957,158690
35.00583,150319
35.01208,153118
35.01833,161887
35.02458,161419
35.03085,157825
35.03710,156303
35.04335,161531
35.04962,160699
35.05587,158080
35.06212,152267
35.06838,154140
35.07463,155873
35.08088,158674
35.08715,152492
35.09340,153728
35.09965,152472
35.10592,156370
35.11217,155279
35.11842,155066
35.12468,158397
35.13093,152394
35.13718,152187
35.14345,155035
35.14970,156339
35.15595,159790
35.16222,157242
35.16847,156072
35.17472,156718
35.18098,155303
35.18723,154221
35.19348,157616
35.19975,154788
35.20600,156009
35.21225,157447
35.21852,151938
35.22477,156068
35.23102,152095
35.23728,156056
35.24353,156256
35.24978,150486
35.25603,155003
35.26230,155292
35.26855,159235
35.27480,154017
35.28107,151842
35.28732,158387
35.29357,154264
35.29983,156611
35.30608,151510
35.31233,156539
35.31860,151912
35.32485,156165
35.33110,152454
35.33737,152781
35.34362,153194
35.34987,157491
35.35613,155615
35.36238,149148
35.36863,155821
35.37490,150761
35.38115,152949
35.38740,150370
35.39367,153442
35.39992,154928
35.40617,153128
35.41243,152857
35.41868,156864
35.42493,160392
35.43120,156474
35.43745,151214
35.44370,156479
35.44997,148580
35.45622,152512
35.46247,153419
35.46872,152892
35.47498,153881
35.48123,152312
35.48748,152114
35.49375,151591
35.50000,150123
35.50625,154096
35.51252,156230
35.51877,150219
35.52502,150868
35.53128,153116
35.53753,155670
35.54378,151330
35.55005,154562
35.55630,154153
35.56255,149974
35.56882,151981
35.57507,151926
35.58132,153786
35.58758,153406
35.59383,150070
35.60008,152930
35.60635,149745
35.61260,154086
35.61885,155554
35.62512,150181
35.63137,155613
35.63762,151885
35.64388,152138
35.65013,149662
35.65638,153594
35.66265,150738
35.66890,153086
35.67515,150217
35.68140,151458
35.68767,150244
35.69392,150296
35.70017,153652
35.70643,149204
35.71268,155899
35.71893,152825
35.72520,155562
35.73145,152034
35.73770,148621
35.74397,147998
35.75022,151797
35.75647,149310
35.76273,148576
35.76898,146608
35.77523,150979
35.78150,156214
35.78775,154343
35.79400,150956
35.80027,148662
35.80652,147459
35.81277,146637
35.81903,150126
35.82528,152869
35.83153,149333
35.83780,156565
35.84405,146634
35.85030,149656
35.85657,154464
35.86282,147258
35.86907,147623
35.87533,149873
35.88158,147607
35.88783,147319
35.89410,151485
35.90035,153616
35.90660,146204
35.91285,147053
35.91912,152396
35.92537,148941
35.93162,149929
35.93788,149922
35.94413,148473
35.95038,147704
35.95665,146389
35.96290,147537
35.96915,147439
35.97542,151807
35.98167,152167
35.98792,153854
35.99418,153201
36.00043,146450
36.00668,154573
36.01295,152004
36.01920,154344
36.02545,151351
36.03172,148516
36.03797,150327
36.04422,147547
36.05048,147897
36.05673,151638
36.06298,146453
36.06925,147477
36.07550,149007
36.08175,148009
36.08802,146695
36.09427,146812
36.10052,145719
36.10678,147620
36.11303,145878
36.11928,146200
36.12553,146058
36.13180,145724
36.13805,145709
36.14430,148879
36.15057,148313
36.15682,148144
36.16307,147906
36.16933,144269
36.17558,148640
36.18183,151900
36.18810,144363
36.19435,145150
36.20060,147288
36.20687,145744
36.21312,146123
36.21937,151013
36.22563,145001
36.23188,147632
36.23813,148187
36.24440,145320
36.25065,151703
36.25690,148186
36.26317,147706
36.26942,150257
36.27567,153602
36.28193,156991
36.28818,162314
36.29443,163180
36.30070,170567
36.30695,173876
36.31320,181625
36.31947,190804
36.32572,202663
36.33197,206354
36.33823,214541
36.34448,224356
36.35073,237516
36.35698,236038
36.36325,244490
36.36950,250246
36.37575,251229
36.38202,255549
36.38827,250179
36.39452,244024
36.40078,233480
36.40703,229177
36.41328,219158
36.41955,204950
36.42580,200415
36.43205,187092
36.43832,183703
36.44457,181642
36.45082,174924
36.45708,172974
36.46333,165901
36.46958,161458
36.47585,163422
36.48210,163453
36.48835,164125
36.49462,159426
36.50087,155774
36.50712,155709
36.51338,158525
36.51963,158262
36.52588,157261
36.53215,155084
36.53840,152422
36.54465,158489
36.55092,154738
36.55717,153791
36.56342,156849
36.56967,149189
36.57593,152625
36.58218,149923
36.58843,155634
36.59470,152687
36.60095,149826
36.60720,149620
36.61347,156618
36.61972,151811
36.62597,151497
36.63223,149362
36.63848,156612
36.64473,152016
36.65100,156514
36.65725,149756
36.66350,153229
36.66977,151068
36.67602,153344
36.68227,149862
36.68853,152783
36.69478,151483
36.70103,156928
36.70730,151024
36.71355,154175
36.71980,151708
36.72607,153274
36.73232,148873
36.73857,148465
36.74483,147913
36.75108,151502
36.75733,149629
36.76360,147333
36.76985,151778
36.77610,148635
36.78237,150302
36.78862,152127
36.79487,147258
36.80112,150045
36.80738,151649
36.81363,147146
36.81988,146471
36.82615,145265
36.83240,151129
36.83865,144625
36.84492,144145
36.85117,146836
36.85742,147848
36.86368,147543
36.86993,147756
36.87618,145347
36.88245,144865
36.88870,148791
36.89495,141699
36.90122,147228
36.90747,147297
36.91372,146802
36.91998,145715
36.92623,144004
36.93248,145717
36.93875,144221
36.94500,146471
36.95125,145507
36.95752,143723
36.96377,143641
36.97002,147541
36.97628,143924
36.98253,148109
36.98878,147891
36.99505,143205
37.00130,142197
37.00755,145476
37.01380,145305
37.02007,146951
37.02632,143708
37.03257,144113
37.03883,144785
37.04508,145881
37.05133,142586
37.05760,141068
37.06385,146337
37.07010,141868
37.07637,145297
37.08262,139347
37.08887,145420
37.09513,143265
37.10138,147397
37.10763,142924
37.11390,144349
37.12015,141211
37.12640,143403
37.13267,143208
37.13892,142705
37.14517,147381
37.15143,145095
37.15768,144593
37.16393,147312
37.17020,145813
37.17645,145888
37.18270,141576
37.18897,142385
37.19522,150184
37.20147,142427
37.20773,140752
37.21398,142181
37.22023,142589
37.22650,146872
37.23275,145308
37.23900,143307
37.24525,142813
37.25152,138625
37.25777,139030
37.26402,142823
37.27028,142741
37.27653,143567
37.28278,143564
37.28905,143541
37.29530,138382
37.30155,143537
37.30782,145253
37.31407,138921
37.32032,141380
37.32658,146792
37.33283,148045
37.33908,139640
37.34535,141919
37.35160,139784
37.35785,140018
37.36412,137406
37.37037,140612
37.37662,141016
37.38288,141290
37.38913,144200
37.39538,146153
37.40165,141921
37.40790,138591
37.41415,142686
37.42042,142628
37.42667,141032
37.43292,140128
37.43918,139322
37.44543,144876
37.45168,141681
37.45793,139248
37.46420,143077
37.47045,143113
37.47670,140854
37.48297,141392
37.48922,144380
