D:\MassHunter\GCMS\1\data\metastasis_lineages_3replicates_3runs_10302020\L_plate3_run1_10302020.D Fri Oct 30 22:07:16 2020
Start of data points
5.99360,174476
5.99987,189974
6.00612,196799
6.01237,197167
6.01863,193397
6.02488,190220
6.03113,185802
6.03740,181748
6.04365,179754
6.04990,185035
6.05617,185599
6.06242,203773
6.06867,211378
6.07492,195725
6.08118,179185
6.08743,177659
6.09368,279152
6.09995,585059
6.10620,944464
6.11245,966930
6.11872,667037
6.12497,351299
6.13122,226933
6.13748,200033
6.14373,211906
6.14998,299610
6.15625,504947
6.16250,787929
6.16875,984900
6.17502,842507
6.18127,531495
6.18752,300522
6.19378,210365
6.20003,180780
6.20628,174455
6.21255,172222
6.21880,155876
6.22505,159652
6.23132,147946
6.23757,145953
6.24382,138401
6.25008,136034
6.25633,133305
6.26258,128036
6.26885,137926
6.27510,138518
6.28135,138189
6.28762,136726
6.29387,150688
6.30012,198089
6.30637,319557
6.31263,562354
6.31888,1113257
6.32513,2736741
6.33140,6129770
6.33765,9901158
6.34390,1.009407E+07
6.35017,5550457
6.35642,1600776
6.36267,374235
6.36893,192677
6.37518,176338
6.38143,162079
6.38770,161899
6.39395,180319
6.40020,239661
6.40647,388162
6.41272,534275
6.41897,563468
6.42523,595360
6.43148,737554
6.43773,750200
6.44400,594409
6.45025,704087
6.45650,1664513
6.46277,4078911
6.46902,8235956
6.47527,1.386207E+07
6.48153,2.017651E+07
6.48778,2.701704E+07
6.49403,3.390291E+07
6.50030,3.940984E+07
6.50655,4.295228E+07
6.51280,4.448936E+07
6.51905,4.376438E+07
6.52532,2.899964E+07
6.53157,3375497
6.53782,613888
6.54408,556674
6.55033,624272
6.55658,751907
6.56285,1037311
6.56910,1550890
6.57535,1941436
6.58162,1558620
6.58787,832200
6.59412,399361
6.60038,273944
6.60663,238348
6.61288,218307
6.61915,205230
6.62540,203702
6.63165,206365
6.63792,213237
6.64417,213529
6.65042,212872
6.65668,234149
6.66293,325753
6.66918,481578
6.67545,544021
6.68170,423140
6.68795,282223
6.69422,230559
6.70047,212309
6.70672,209508
6.71298,220847
6.71923,238458
6.72548,249045
6.73175,255591
6.73800,272473
6.74425,275024
6.75050,281649
6.75677,276791
6.76302,279727
6.76927,273767
6.77553,279429
6.78178,285911
6.78803,289178
6.79430,301731
6.80055,318452
6.80680,334587
6.81307,345904
6.81932,346693
6.82557,347172
6.83183,347910
6.83808,372344
6.84433,414449
6.85060,438545
6.85685,416435
6.86310,394593
6.86937,409153
6.87562,524293
6.88187,697162
6.88813,818737
6.89438,712311
6.90063,528338
6.90690,412186
6.91315,371517
6.91940,345898
6.92567,331613
6.93192,325595
6.93817,325939
6.94443,317617
6.95068,305975
6.95693,296949
6.96318,283954
6.96945,279817
6.97570,283351
6.98195,283631
6.98822,275313
6.99447,258278
7.00072,243666
7.00698,237011
7.01323,241304
7.01948,289414
7.02575,462657
7.03200,985135
7.03825,2298727
7.04452,4328910
7.05077,5572931
7.05702,4705317
7.06328,2405968
7.06953,847803
7.07578,305760
7.08205,178218
7.08830,155628
7.09455,137799
7.10082,134642
7.10707,122868
7.11332,123088
7.11958,113188
7.12583,112931
7.13208,131376
7.13835,177357
7.14460,259943
7.15085,354787
7.15712,349812
7.16337,245592
7.16962,155691
7.17588,116528
7.18213,104760
7.18838,97424
7.19463,95350
7.20090,100979
7.20715,102188
7.21340,102050
7.21967,101270
7.22592,102350
7.23217,102048
7.23843,119495
7.24468,153590
7.25093,220074
7.25720,383384
7.26345,588122
7.26970,682825
7.27597,555113
7.28222,341270
7.28847,204380
7.29473,138669
7.30098,126076
7.30723,122443
7.31350,116973
7.31975,113009
7.32600,102803
7.33227,93863
7.33852,96625
7.34477,93675
7.35103,93192
7.35728,85198
7.36353,89396
7.36980,82736
7.37605,85091
7.38230,94725
7.38857,107815
7.39482,114918
7.40107,115653
7.40732,116257
7.41358,143199
7.41983,195540
7.42608,261993
7.43235,314483
7.43860,321994
7.44485,285219
7.45112,213296
7.45737,147508
7.46362,126972
7.46988,124467
7.47613,128994
7.48238,135652
7.48865,150470
7.49490,171303
7.50115,215682
7.50742,239401
7.51367,216058
7.51992,161287
7.52618,116317
7.53243,100790
7.53868,97467
7.54495,123314
7.55120,338900
7.55745,1324743
7.56372,4206491
7.56997,9665497
7.57622,1.656695E+07
7.58248,2.066564E+07
7.58873,1.87678E+07
7.59498,9677830
7.60125,2872591
7.60750,1013621
7.61375,686088
7.62000,597406
7.62627,532491
7.63252,457162
7.63877,329828
7.64503,229265
7.65128,183574
7.65753,160571
7.66380,158513
7.67005,183042
7.67630,239669
7.68257,294327
7.68882,278208
7.69507,216854
7.70133,165862
7.70758,157486
7.71383,203121
7.72010,277933
7.72635,309131
7.73260,278236
7.73887,225992
7.74512,179479
7.75137,152013
7.75763,129497
7.76388,113778
7.77013,106400
7.77640,108794
7.78265,115135
7.78890,118858
7.79517,120954
7.80142,117606
7.80767,118826
7.81393,121800
7.82018,138032
7.82643,177373
7.83270,225132
7.83895,231365
7.84520,215538
7.85145,199617
7.85772,222433
7.86397,259315
7.87022,268413
7.87648,239346
7.88273,193370
7.88898,159671
7.89525,139855
7.90150,138683
7.90775,154895
7.91402,168429
7.92027,181606
7.92652,184214
7.93278,167123
7.93903,169851
7.94528,191843
7.95155,252381
7.95780,315510
7.96405,326444
7.97032,272547
7.97657,238372
7.98282,253775
7.98908,347469
7.99533,546106
8.00158,773078
8.00785,975411
8.01410,1345271
8.02035,1772742
8.02662,1777651
8.03287,1361442
8.03912,860258
8.04538,738183
8.05163,878679
8.05788,1031636
8.06413,933793
8.07040,634960
8.07665,377306
8.08290,319748
8.08917,395842
8.09542,492263
8.10167,538036
8.10793,581734
8.11418,719763
8.12043,896198
8.12670,837397
8.13295,536357
8.13920,303313
8.14547,214867
8.15172,193642
8.15797,176950
8.16423,158889
8.17048,134911
8.17673,123070
8.18300,120237
8.18925,120418
8.19550,123384
8.20177,112654
8.20802,109624
8.21427,111081
8.22053,133100
8.22678,177703
8.23303,270542
8.23930,356921
8.24555,345567
8.25180,256067
8.25807,194109
8.26432,161683
8.27057,148962
8.27682,154763
8.28308,168608
8.28933,184875
8.29558,192083
8.30185,168828
8.30810,133454
8.31435,103377
8.32062,88975
8.32687,90272
8.33312,91340
8.33938,97223
8.34563,101417
8.35188,98044
8.35815,101151
8.36440,102220
8.37065,93571
8.37692,97746
8.38317,92979
8.38942,95906
8.39568,120747
8.40193,200870
8.40818,346464
8.41445,429408
8.42070,370163
8.42695,250896
8.43322,184642
8.43947,176298
8.44572,180443
8.45198,171356
8.45823,148360
8.46448,130960
8.47075,121346
8.47700,112565
8.48325,114550
8.48952,115771
8.49577,113683
8.50202,119999
8.50827,132631
8.51453,129963
8.52078,120926
8.52703,104707
8.53330,96726
8.53955,89469
8.54580,95488
8.55207,100982
8.55832,136587
8.56457,222527
8.57083,372299
8.57708,563417
8.58333,832324
8.58960,1193590
8.59585,1414531
8.60210,1284265
8.60837,1342421
8.61462,2551227
8.62087,5837090
8.62713,9926371
8.63338,1.170238E+07
8.63963,8857672
8.64590,4046988
8.65215,1159049
8.65840,326096
8.66467,192929
8.67092,183674
8.67717,194103
8.68343,191279
8.68968,186560
8.69593,176259
8.70220,176351
8.70845,183248
8.71470,194909
8.72095,197261
8.72722,174895
8.73347,156042
8.73972,145848
8.74598,160259
8.75223,169477
8.75848,155609
8.76475,123518
8.77100,106316
8.77725,95362
8.78352,99599
8.78977,94279
8.79602,95767
8.80228,90830
8.80853,87287
8.81478,92954
8.82105,103389
8.82730,171196
8.83355,404931
8.83982,1059120
8.84607,2493295
8.85232,4964723
8.85858,7667088
8.86483,8807728
8.87108,7874660
8.87735,6049623
8.88360,5445591
8.88985,5786495
8.89612,6534950
8.90237,7345555
8.90862,8044182
8.91488,8788502
8.92113,9458890
8.92738,1.004101E+07
8.93365,5990503
8.93990,745741
8.94615,222157
8.95240,201908
8.95867,235372
8.96492,283686
8.97117,309424
8.97743,329306
8.98368,320577
8.98993,321080
8.99620,377113
9.00245,511034
9.00870,682937
9.01497,761127
9.02122,658600
9.02747,464178
9.03373,322317
9.03998,352630
9.04623,551655
9.05250,777217
9.05875,756693
9.06500,508733
9.07127,294301
9.07752,187243
9.08377,152462
9.09003,152689
9.09628,151751
9.10253,156720
9.10880,150854
9.11505,130365
9.12130,115888
9.12757,112565
9.13382,113025
9.14007,131828
9.14633,145894
9.15258,163211
9.15883,195282
9.16508,247426
9.17135,277465
9.17760,275748
9.18385,291519
9.19012,332595
9.19637,372060
9.20262,349244
9.20888,259727
9.21513,175801
9.22138,127731
9.22765,114713
9.23390,120540
9.24015,160865
9.24642,225689
9.25267,256957
9.25892,245518
9.26518,183954
9.27143,129690
9.27768,104640
9.28395,99280
9.29020,110964
9.29645,127682
9.30272,170727
9.30897,239724
9.31522,325904
9.32148,404320
9.32773,430933
9.33398,394802
9.34025,401990
9.34650,519037
9.35275,656455
9.35902,623012
9.36527,442347
9.37152,293385
9.37778,413713
9.38403,1380509
9.39028,3998544
9.39653,8295774
9.40280,1.1117E+07
9.40905,1.007041E+07
9.41530,5558231
9.42157,1918019
9.42782,652260
9.43407,769762
9.44033,2258678
9.44658,6464680
9.45283,1.493544E+07
9.45910,2.605582E+07
9.46535,3.462905E+07
9.47160,3.42598E+07
9.47787,2.532073E+07
9.48412,1.369373E+07
9.49037,4840381
9.49663,1126875
9.50288,334944
9.50913,204271
9.51540,177410
9.52165,174436
9.52790,168779
9.53417,164485
9.54042,163506
9.54667,162749
9.55293,156061
9.55918,145650
9.56543,139851
9.57170,149525
9.57795,159250
9.58420,160855
9.59047,155130
9.59672,147102
9.60297,149555
9.60922,163435
9.61548,197663
9.62173,207475
9.62798,187322
9.63425,150052
9.64050,134154
9.64675,126188
9.65302,128199
9.65927,136286
9.66552,129477
9.67178,138061
9.67803,248859
9.68428,789700
9.69055,2644827
9.69680,6255286
9.70305,9699236
9.70932,1.031435E+07
9.71557,6681727
9.72182,2849735
9.72808,1307730
9.73433,1559251
9.74058,2299432
9.74685,2493984
9.75310,1752694
9.75935,856719
9.76562,347279
9.77187,184566
9.77812,148087
9.78438,128630
9.79063,117828
9.79688,106040
9.80315,102557
9.80940,108349
9.81565,110178
9.82192,111837
9.82817,114371
9.83442,119646
9.84067,134887
9.84693,170798
9.85318,273969
9.85943,711899
9.86570,2134545
9.87195,5141037
9.87820,8556223
9.88447,8875703
9.89072,6046780
9.89697,2667904
9.90323,1235038
9.90948,1338603
9.91573,1803454
9.92200,1616884
9.92825,921932
9.93450,401019
9.94077,193591
9.94702,150111
9.95327,161847
9.95953,217208
9.96578,371287
9.97203,625648
9.97830,865659
9.98455,934593
9.99080,876375
9.99707,738408
10.00332,569187
10.00957,395246
10.01583,285113
10.02208,219474
10.02833,184610
10.03460,164251
10.04085,156223
10.04710,150429
10.05335,153821
10.05962,141723
10.06587,123412
10.07212,107757
10.07838,109184
10.08463,114318
10.09088,131115
10.09715,143030
10.10340,153509
10.10965,158933
10.11592,146718
10.12217,132642
10.12842,116231
10.13468,109795
10.14093,102919
10.14718,97284
10.15345,105722
10.15970,104153
10.16595,106412
10.17222,105035
10.17847,113008
10.18472,131997
10.19098,144994
10.19723,137145
10.20348,126526
10.20975,113077
10.21600,123702
10.22225,170824
10.22852,266904
10.23477,417822
10.24102,535581
10.24728,559156
10.25353,477652
10.25978,358807
10.26603,266615
10.27230,213466
10.27855,180660
10.28480,165062
10.29107,193865
10.29732,240129
10.30357,261540
10.30983,218840
10.31608,171419
10.32233,149629
10.32860,164880
10.33485,218253
10.34110,273349
10.34737,279941
10.35362,219486
10.35987,168692
10.36613,142063
10.37238,135459
10.37863,128600
10.38490,118905
10.39115,111048
10.39740,105953
10.40367,100920
10.40992,92696
10.41617,92443
10.42243,103606
10.42868,117112
10.43493,120220
10.44120,124650
10.44745,126690
10.45370,131076
10.45997,132306
10.46622,134288
10.47247,143070
10.47873,190712
10.48498,304581
10.49123,429678
10.49748,446371
10.50375,353002
10.51000,219989
10.51625,142470
10.52252,114894
10.52877,123058
10.53502,153628
10.54128,189723
10.54753,211636
10.55378,198084
10.56005,164459
10.56630,150165
10.57255,163526
10.57882,181872
10.58507,196873
10.59132,193005
10.59758,193171
10.60383,282800
10.61008,800830
10.61635,2426924
10.62260,5398424
10.62885,8297116
10.63512,8583672
10.64137,5633389
10.64762,2343953
10.65388,740487
10.66013,263253
10.66638,167452
10.67265,163670
10.67890,173612
10.68515,174741
10.69142,160824
10.69767,136758
10.70392,116084
10.71017,108514
10.71643,108727
10.72268,118099
10.72893,133247
10.73520,144187
10.74145,146357
10.74770,139297
10.75397,136318
10.76022,133795
10.76647,136467
10.77273,142151
10.77898,154240
10.78523,152603
10.79150,154780
10.79775,148578
10.80400,150433
10.81027,177872
10.81652,248806
10.82277,338048
10.82903,345503
10.83528,268158
10.84153,183785
10.84780,145732
10.85405,137684
10.86030,147274
10.86657,156821
10.87282,151396
10.87907,151668
10.88533,150864
10.89158,148778
10.89783,157795
10.90410,179887
10.91035,198329
10.91660,193176
10.92285,173241
10.92912,158594
10.93537,151036
10.94162,145763
10.94788,126094
10.95413,120863
10.96038,140297
10.96665,278682
10.97290,858404
10.97915,2638044
10.98542,6248265
10.99167,1.115749E+07
10.99792,1.421678E+07
11.00418,1.293785E+07
11.01043,7275791
11.01668,2478746
11.02295,641553
11.02920,232104
11.03545,197735
11.04172,220300
11.04797,235588
11.05422,249144
11.06048,271471
11.06673,284250
11.07298,252965
11.07925,193549
11.08550,151713
11.09175,141722
11.09802,173802
11.10427,212359
11.11052,232259
11.11678,215100
11.12303,199485
11.12928,187501
11.13555,189256
11.14180,182715
11.14805,188202
11.15430,208326
11.16057,283636
11.16682,413966
11.17307,501084
11.17933,484622
11.18558,357246
11.19183,227532
11.19810,157277
11.20435,146578
11.21060,153776
11.21687,166519
11.22312,171292
11.22937,169995
11.23563,167126
11.24188,158239
11.24813,164029
11.25440,211339
11.26065,301991
11.26690,488280
11.27317,879277
11.27942,1417254
11.28567,1741820
11.29193,1564433
11.29818,1075294
11.30443,598539
11.31070,326642
11.31695,255435
11.32320,344441
11.32947,520153
11.33572,633050
11.34197,565348
11.34823,379695
11.35448,221558
11.36073,148321
11.36698,128150
11.37325,129173
11.37950,130850
11.38575,123165
11.39202,115992
11.39827,120528
11.40452,132590
11.41078,135587
11.41703,140786
11.42328,133575
11.42955,133743
11.43580,151584
11.44205,240082
11.44832,413789
11.45457,585533
11.46082,619310
11.46708,475479
11.47333,299915
11.47958,197303
11.48585,173975
11.49210,169426
11.49835,163043
11.50462,154396
11.51087,143736
11.51712,132015
11.52338,127114
11.52963,124184
11.53588,123267
11.54215,130697
11.54840,144014
11.55465,156788
11.56092,146339
11.56717,130289
11.57342,118204
11.57967,114336
11.58593,116879
11.59218,126731
11.59843,127992
11.60470,134436
11.61095,134368
11.61720,130253
11.62347,130850
11.62972,129896
11.63597,125349
11.64223,128784
11.64848,136025
11.65473,147967
11.66100,170344
11.66725,163731
11.67350,157185
11.67977,146829
11.68602,132220
11.69227,133074
11.69853,136117
11.70478,150426
11.71103,176788
11.71730,215960
11.72355,248424
11.72980,243707
11.73607,223972
11.74232,198664
11.74857,170073
11.75483,155637
11.76108,152206
11.76733,163638
11.77360,185480
11.77985,194967
11.78610,189113
11.79237,182714
11.79862,178207
11.80487,183646
11.81112,178266
11.81738,175799
11.82363,180186
11.82988,230847
11.83615,372283
11.84240,550560
11.84865,624196
11.85492,535960
11.86117,362083
11.86742,243870
11.87368,188365
11.87993,177649
11.88618,218945
11.89245,292176
11.89870,365122
11.90495,383262
11.91122,343660
11.91747,293558
11.92372,241069
11.92998,214441
11.93623,221632
11.94248,302497
11.94875,605679
11.95500,1381473
11.96125,2815924
11.96752,4689979
11.97377,5658538
11.98002,4557374
11.98628,2332603
11.99253,853949
11.99878,387217
12.00505,312017
12.01130,312720
12.01755,297769
12.02380,271010
12.03007,261633
12.03632,282281
12.04257,349808
12.04883,477001
12.05508,617596
12.06133,688972
12.06760,632368
12.07385,491925
12.08010,339054
12.08637,287824
12.09262,293010
12.09887,318607
12.10513,333568
12.11138,303288
12.11763,249921
12.12390,207458
12.13015,184228
12.13640,178586
12.14267,176354
12.14892,173270
12.15517,157917
12.16143,154538
12.16768,157790
12.17393,159440
12.18020,170553
12.18645,183589
12.19270,209650
12.19897,244171
12.20522,313668
12.21147,389028
12.21773,457808
12.22398,486793
12.23023,468767
12.23650,407224
12.24275,381349
12.24900,438177
12.25525,626535
12.26152,940308
12.26777,1364253
12.27402,1711597
12.28028,1843668
12.28653,1466713
12.29278,961529
12.29905,511194
12.30530,281446
12.31155,191912
12.31782,162977
12.32407,145959
12.33032,142547
12.33658,152449
12.34283,176181
12.34908,207328
12.35535,240003
12.36160,258030
12.36785,245032
12.37412,231796
12.38037,240897
12.38662,295296
12.39288,363418
12.39913,376939
12.40538,325579
12.41165,250474
12.41790,205330
12.42415,197877
12.43042,206843
12.43667,243214
12.44292,266970
12.44918,252884
12.45543,215852
12.46168,188993
12.46793,191231
12.47420,250318
12.48045,406387
12.48670,722048
12.49297,1218384
12.49922,1669250
12.50547,1689299
12.51173,1180015
12.51798,659427
12.52423,333741
12.53050,215812
12.53675,203408
12.54300,243459
12.54927,298773
12.55552,324174
12.56177,308962
12.56803,284209
12.57428,308255
12.58053,455908
12.58680,810572
12.59305,1460655
12.59930,2384925
12.60557,4010723
12.61182,7219637
12.61807,1.275748E+07
12.62433,2.02707E+07
12.63058,2.479238E+07
12.63683,2.429617E+07
12.64310,1.685196E+07
12.64935,1.072078E+07
12.65560,1.039465E+07
12.66187,1.38549E+07
12.66812,1.903377E+07
12.67437,2.320385E+07
12.68063,2.373424E+07
12.68688,1.768569E+07
12.69313,7534639
12.69938,1931412
12.70565,563882
12.71190,417114
12.71815,545424
12.72442,747500
12.73067,826405
12.73692,759857
12.74318,704735
12.74943,673478
12.75568,602146
12.76195,507535
12.76820,421624
12.77445,358889
12.78072,317755
12.78697,293628
12.79322,289112
12.79948,278349
12.80573,263152
12.81198,256683
12.81825,238418
12.82450,240435
12.83075,240177
12.83702,245191
12.84327,255220
12.84952,262729
12.85578,267778
12.86203,272733
12.86828,255581
12.87455,249332
12.88080,262804
12.88705,325460
12.89332,472163
12.89957,649378
12.90582,745855
12.91207,721281
12.91833,614123
12.92458,501007
12.93083,391852
12.93710,293953
12.94335,230717
12.94960,201903
12.95587,200708
12.96212,190491
12.96837,183423
12.97463,174991
12.98088,179639
12.98713,180215
12.99340,199811
12.99965,217142
13.00590,237208
13.01217,253867
13.01842,282697
13.02467,328299
13.03093,428149
13.03718,570389
13.04343,646034
13.04970,578609
13.05595,422035
13.06220,312020
13.06847,335602
13.07472,590098
13.08097,1183230
13.08723,2012898
13.09348,2595856
13.09973,2304127
13.10600,1506442
13.11225,828960
13.11850,496688
13.12477,351564
13.13102,288818
13.13727,268024
13.14352,273349
13.14978,279231
13.15603,269555
13.16228,247907
13.16855,233979
13.17480,224286
13.18105,208381
13.18732,194264
13.19357,185641
13.19982,176240
13.20608,167279
13.21233,169545
13.21858,176195
13.22485,188312
13.23110,213947
13.23735,248585
13.24362,271901
13.24987,272133
13.25612,254695
13.26238,250550
13.26863,248675
13.27488,254784
13.28115,246431
13.28740,263645
13.29365,329923
13.29992,493807
13.30617,804342
13.31242,1146611
13.31868,1286530
13.32493,1047661
13.33118,625619
13.33745,345722
13.34370,246138
13.34995,240781
13.35620,249159
13.36247,254690
13.36872,235557
13.37497,213641
13.38123,193218
13.38748,178303
13.39373,172562
13.40000,168663
13.40625,174242
13.41250,181726
13.41877,190722
13.42502,211293
13.43127,240686
13.43753,277865
13.44378,302892
13.45003,308308
13.45630,281585
13.46255,241545
13.46880,212455
13.47507,200343
13.48132,197949
13.48757,200733
13.49383,204135
13.50008,208217
13.50633,224818
13.51260,259875
13.51885,311391
13.52510,353352
13.53137,357994
13.53762,327485
13.54387,310999
13.55013,346689
13.55638,433281
13.56263,519100
13.56888,504780
13.57515,440715
13.58140,380253
13.58765,388842
13.59392,482740
13.60017,650484
13.60642,825722
13.61268,904911
13.61893,843263
13.62518,697029
13.63145,545129
13.63770,425732
13.64395,337409
13.65022,305798
13.65647,292160
13.66272,282063
13.66898,272530
13.67523,258815
13.68148,262558
13.68775,271160
13.69400,295542
13.70025,300017
13.70652,294250
13.71277,286849
13.71902,280431
13.72528,274947
13.73153,274375
13.73778,268822
13.74405,273927
13.75030,304476
13.75655,389806
13.76282,600136
13.76907,880187
13.77532,1001221
13.78158,823814
13.78783,555374
13.79408,403455
13.80033,485181
13.80660,937094
13.81285,1921391
13.81910,3756488
13.82537,6791184
13.83162,1.086496E+07
13.83787,1.631372E+07
13.84413,2.096472E+07
13.85038,2.03913E+07
13.85663,1.18525E+07
13.86290,3645118
13.86915,786603
13.87540,310922
13.88167,270268
13.88792,371436
13.89417,688931
13.90043,1440351
13.90668,2876543
13.91293,5191176
13.91920,7062933
13.92545,6824728
13.93170,4562603
13.93797,2008757
13.94422,682609
13.95047,258358
13.95673,183053
13.96298,170116
13.96923,171060
13.97550,168556
13.98175,172629
13.98800,173510
13.99427,181579
14.00052,203333
14.00677,244190
14.01302,293302
14.01928,308024
14.02553,271848
14.03178,212812
14.03805,165256
14.04430,145351
14.05055,145131
14.05682,160882
14.06307,189770
14.06932,231817
14.07558,260253
14.08183,276046
14.08808,272246
14.09435,260695
14.10060,233811
14.10685,205112
14.11312,173856
14.11937,161563
14.12562,160829
14.13188,160978
14.13813,161356
14.14438,155522
14.15065,151133
14.15690,158684
14.16315,161324
14.16942,158071
14.17567,144800
14.18192,132727
14.18818,123346
14.19443,123629
14.20068,126604
14.20695,130074
14.21320,140961
14.21945,159880
14.22570,189938
14.23197,236688
14.23822,247704
14.24447,238899
14.25073,205198
14.25698,183534
14.26323,183733
14.26950,220593
14.27575,292790
14.28200,349000
14.28827,349229
14.29452,317533
14.30077,291410
14.30703,317512
14.31328,392584
14.31953,449349
14.32580,473416
14.33205,462917
14.33830,400260
14.34457,317025
14.35082,274232
14.35707,239682
14.36333,244479
14.36958,269293
14.37583,294970
14.38210,277502
14.38835,254838
14.39460,258232
14.40087,324015
14.40712,558653
14.41337,1209981
14.41963,2512575
14.42588,3977365
14.43213,4618222
14.43840,3915277
14.44465,2295900
14.45090,1234463
14.45715,871275
14.46342,849098
14.46967,922273
14.47592,1007511
14.48218,1094929
14.48843,1052015
14.49468,837664
14.50095,562671
14.50720,367803
14.51345,253409
14.51972,216854
14.52597,215944
14.53222,235110
14.53848,241627
14.54473,235854
14.55098,226314
14.55725,223539
14.56350,217529
14.56975,215598
14.57602,221102
14.58227,212585
14.58852,196690
14.59478,182893
14.60103,172623
14.60728,180000
14.61355,195500
14.61980,212949
14.62605,238024
14.63232,271731
14.63857,334016
14.64482,429414
14.65108,506703
14.65733,532259
14.66358,451795
14.66983,359768
14.67610,295795
14.68235,262007
14.68860,258741
14.69487,284300
14.70112,320888
14.70737,360334
14.71363,368750
14.71988,413192
14.72613,551621
14.73240,834949
14.73865,1292041
14.74490,1712866
14.75117,1791158
14.75742,1694314
14.76367,1579417
14.76993,1406311
14.77618,1003470
14.78243,576954
14.78870,328269
14.79495,320205
14.80120,539382
14.80747,1053996
14.81372,1675319
14.81997,1890300
14.82623,1475981
14.83248,816439
14.83873,385332
14.84500,248546
14.85125,232362
14.85750,259423
14.86377,261702
14.87002,270330
14.87627,280380
14.88253,259834
14.88878,243615
14.89503,222894
14.90128,220821
14.90755,262625
14.91380,385024
14.92005,573087
14.92632,673907
14.93257,641194
14.93882,516635
14.94508,373889
14.95133,275721
14.95758,247906
14.96385,279039
14.97010,395634
14.97635,641983
14.98262,924221
14.98887,1009456
14.99512,834183
15.00138,531977
15.00763,338103
15.01388,246855
15.02015,203814
15.02640,177901
15.03265,168229
15.03892,178799
15.04517,186112
15.05142,210322
15.05768,228419
15.06393,248900
15.07018,247034
15.07645,238900
15.08270,218853
15.08895,219299
15.09522,239894
15.10147,272548
15.10772,299387
15.11397,326290
15.12023,360575
15.12648,453186
15.13273,558822
15.13900,652703
15.14525,731295
15.15150,749556
15.15777,717854
15.16402,762326
15.17027,1085237
15.17653,1563595
15.18278,1804976
15.18903,1540695
15.19530,954953
15.20155,587299
15.20780,423031
15.21407,340092
15.22032,254302
15.22657,188028
15.23283,164068
15.23908,161733
15.24533,174281
15.25160,215773
15.25785,264701
15.26410,298060
15.27037,291087
15.27662,249405
15.28287,204590
15.28913,176777
15.29538,171684
15.30163,171212
15.30790,183451
15.31415,217663
15.32040,278410
15.32667,350708
15.33292,377825
15.33917,350074
15.34542,284480
15.35168,234054
15.35793,242477
15.36418,276976
15.37045,305926
15.37670,291094
15.38295,248374
15.38922,215208
15.39547,196666
15.40172,185840
15.40798,176330
15.41423,176910
15.42048,177850
15.42675,197556
15.43300,227492
15.43925,257625
15.44552,277482
15.45177,297434
15.45802,347376
15.46428,367958
15.47053,369080
15.47678,331227
15.48305,274407
15.48930,230162
15.49555,194429
15.50182,200594
15.50807,228239
15.51432,301962
15.52058,558536
15.52683,1209575
15.53308,2393072
15.53935,3917682
15.54560,5652542
15.55185,8135495
15.55810,1.101418E+07
15.56437,1.269466E+07
15.57062,9943889
15.57687,4378858
15.58313,1328780
15.58938,509508
15.59563,348730
15.60190,314162
15.60815,304039
15.61440,314626
15.62067,331685
15.62692,318830
15.63317,306492
15.63943,307156
15.64568,298458
15.65193,259405
15.65820,227181
15.66445,214938
15.67070,220836
15.67697,236452
15.68322,266264
15.68947,297976
15.69573,346716
15.70198,427062
15.70823,513088
15.71450,490139
15.72075,373502
15.72700,264505
15.73327,217622
15.73952,207204
15.74577,210651
15.75203,213036
15.75828,206081
15.76453,187091
15.77080,168955
15.77705,154164
15.78330,145653
15.78955,146122
15.79582,163980
15.80207,180050
15.80832,196456
15.81458,196900
15.82083,185024
15.82708,177050
15.83335,175719
15.83960,194659
15.84585,236382
15.85212,260698
15.85837,265716
15.86462,237596
15.87088,224284
15.87713,233982
15.88338,250095
15.88965,247407
15.89590,215733
15.90215,191650
15.90842,170278
15.91467,155929
15.92092,155767
15.92718,153737
15.93343,156212
15.93968,151757
15.94595,147993
15.95220,145983
15.95845,153451
15.96472,172757
15.97097,192474
15.97722,200587
15.98348,188890
15.98973,157662
15.99598,139979
16.00223,141302
16.00850,163042
16.01475,199490
16.02100,278448
16.02727,357565
16.03352,426565
16.03977,493612
16.04603,632152
16.05228,852265
16.05853,980208
16.06480,865172
16.07105,648549
16.07730,498553
16.08357,574472
16.08982,789219
16.09607,915799
16.10233,919326
16.10858,943590
16.11483,1273616
16.12110,2189653
16.12735,3716364
16.13360,4970209
16.13987,4559722
16.14612,2965303
16.15237,1404396
16.15863,631083
16.16488,433559
16.17113,414444
16.17740,383966
16.18365,324429
16.18990,289338
16.19617,327744
16.20242,382294
16.20867,381443
16.21492,313697
16.22118,267744
16.22743,333515
16.23368,575062
16.23995,921032
16.24620,1093133
16.25245,936403
16.25872,585943
16.26497,350121
16.27122,244455
16.27748,200299
16.28373,184290
16.28998,187131
16.29625,216408
16.30250,312074
16.30875,474821
16.31502,576878
16.32127,521985
16.32752,384451
16.33378,285117
16.34003,252327
16.34628,255156
16.35255,309703
16.35880,362389
16.36505,364148
16.37132,311924
16.37757,235941
16.38382,194467
16.39008,171340
16.39633,162181
16.40258,164884
16.40885,172164
16.41510,178828
16.42135,177203
16.42762,192342
16.43387,277089
16.44012,514483
16.44637,946510
16.45263,1393489
16.45888,1467021
16.46513,1199711
16.47140,837879
16.47765,624705
16.48390,485057
16.49017,373631
16.49642,304331
16.50267,261632
16.50893,280205
16.51518,353904
16.52143,499411
16.52770,650436
16.53395,695192
16.54020,611167
16.54647,478197
16.55272,400815
16.55897,345972
16.56523,308591
16.57148,283434
16.57773,268139
16.58400,268594
16.59025,268141
16.59650,270466
16.60277,271288
16.60902,280208
16.61527,293605
16.62153,317063
16.62778,327119
16.63403,349801
16.64030,365264
16.64655,400839
16.65280,426564
16.65905,413151
16.66532,369630
16.67157,328948
16.67782,295649
16.68408,309378
16.69033,319790
16.69658,318961
16.70285,305405
16.70910,274743
16.71535,249521
16.72162,238901
16.72787,233497
16.73412,234364
16.74038,254494
16.74663,290870
16.75288,366019
16.75915,549206
16.76540,983661
16.77165,1978075
16.77792,3974588
16.78417,6726531
16.79042,8319050
16.79668,7868062
16.80293,6564276
16.80918,5637272
16.81545,5652431
16.82170,5497041
16.82795,5997373
16.83422,6961606
16.84047,9078360
16.84672,1.055494E+07
16.85298,9751513
16.85923,7404580
16.86548,4995572
16.87173,3550000
16.87800,3475950
16.88425,4243122
16.89050,5543805
16.89677,6377155
16.90302,6471111
16.90927,5719393
16.91553,3979785
16.92178,2689843
16.92803,2213822
16.93430,2249821
16.94055,2360617
16.94680,2477258
16.95307,2527160
16.95932,2741018
16.96557,2734073
16.97183,2528747
16.97808,1953755
16.98433,1457183
16.99060,1095760
16.99685,960776
17.00310,996361
17.00937,1258254
17.01562,2232565
17.02187,4570041
17.02813,8423523
17.03438,1.286636E+07
17.04063,1.86944E+07
17.04690,2.436835E+07
17.05315,3.203561E+07
17.05940,3.968386E+07
17.06567,4.662842E+07
17.07192,4.886148E+07
17.07817,4.815294E+07
17.08443,4.621688E+07
17.09068,4.359733E+07
17.09693,4.09981E+07
17.10318,3.968024E+07
17.10945,3.83875E+07
17.11570,4.482524E+07
17.12195,1.745995E+07
17.12822,8106638
17.13447,7756120
17.14072,6619793
17.14698,5389706
17.15323,5651772
17.15948,9567871
17.16575,1.691402E+07
17.17200,2.586476E+07
17.17825,3.239509E+07
17.18452,3.176285E+07
17.19077,2.074263E+07
17.19702,7606347
17.20328,2566098
17.20953,1826829
17.21578,2142785
17.22205,2821102
17.22830,3867884
17.23455,5855079
17.24082,1.028713E+07
17.24707,1.929459E+07
17.25332,3.149638E+07
17.25958,4.009676E+07
17.26583,4.488131E+07
17.27208,4.332611E+07
17.27835,2.781582E+07
17.28460,9805245
17.29085,5550899
17.29712,7558833
17.30337,1.06958E+07
17.30962,1.1417E+07
17.31587,9083536
17.32213,4790639
17.32838,2067455
17.33463,1081998
17.34090,787278
17.34715,700849
17.35340,655887
17.35967,626829
17.36592,613097
17.37217,596448
17.37843,604822
17.38468,621482
17.39093,654406
17.39720,662419
17.40345,742916
17.40970,882896
17.41597,1024125
17.42222,1125892
17.42847,1113412
17.43473,1013983
17.44098,1111323
17.44723,1610788
17.45350,2624284
17.45975,3855573
17.46600,4144838
17.47227,3346610
17.47852,2019609
17.48477,1072703
17.49103,725119
17.49728,628967
17.50353,617416
17.50980,652366
17.51605,728366
17.52230,805619
17.52855,798670
17.53482,690185
17.54107,541950
17.54732,468604
17.55358,481377
17.55983,621917
17.56608,1050141
17.57235,2201843
17.57860,4397578
17.58485,6767726
17.59112,7174503
17.59737,5380672
17.60362,2925224
17.60988,1283067
17.61613,740763
17.62238,674003
17.62865,724537
17.63490,724227
17.64115,622079
17.64742,507651
17.65367,437112
17.65992,399229
17.66618,387607
17.67243,377610
17.67868,371532
17.68495,378386
17.69120,391834
17.69745,409538
17.70372,428969
17.70997,430730
17.71622,408378
17.72248,363907
17.72873,346433
17.73498,350775
17.74125,383291
17.74750,426808
17.75375,449571
17.76000,461146
17.76627,472208
17.77252,531895
17.77877,664306
17.78503,918425
17.79128,1356768
17.79753,2227216
17.80380,3673531
17.81005,5204187
17.81630,6483776
17.82257,6486437
17.82882,5005947
17.83507,2682407
17.84133,1490630
17.84758,941377
17.85383,724762
17.86010,716234
17.86635,1268402
17.87260,2785851
17.87887,4875952
17.88512,6399561
17.89137,5591029
17.89763,3170563
17.90388,1490653
17.91013,692489
17.91640,449362
17.92265,375302
17.92890,350940
17.93517,349694
17.94142,371714
17.94767,395502
17.95393,413399
17.96018,402004
17.96643,376503
17.97268,363385
17.97895,354712
17.98520,360987
17.99145,393164
17.99772,444922
18.00397,530187
18.01022,632166
18.01648,684815
18.02273,643005
18.02898,530139
18.03525,445580
18.04150,413079
18.04775,416211
18.05402,396017
18.06027,349252
18.06652,302811
18.07278,273364
18.07903,269042
18.08528,297386
18.09155,354577
18.09780,421278
18.10405,479144
18.11032,491662
18.11657,468329
18.12282,492031
18.12908,675931
18.13533,1245983
18.14158,2449185
18.14785,3774878
18.15410,3845668
18.16035,2893288
18.16662,1520805
18.17287,675055
18.17912,382312
18.18538,293427
18.19163,262920
18.19788,245261
18.20413,240589
18.21040,252595
18.21665,280103
18.22290,318259
18.22917,337770
18.23542,337311
18.24167,318043
18.24793,289132
18.25418,263516
18.26043,269607
18.26670,280593
18.27295,308082
18.27920,362350
18.28547,461984
18.29172,659400
18.29797,1005415
18.30423,1431125
18.31048,1535430
18.31673,1274966
18.32300,831581
18.32925,499449
18.33550,338761
18.34177,260362
18.34802,224168
18.35427,235471
18.36053,250184
18.36678,273443
18.37303,267180
18.37930,272603
18.38555,294324
18.39180,342965
18.39807,369892
18.40432,358681
18.41057,323825
18.41682,304198
18.42308,296773
18.42933,276350
18.43558,271769
18.44185,259383
18.44810,244168
18.45435,226111
18.46062,216588
18.46687,210013
18.47312,217342
18.47938,219934
18.48563,212144
18.49188,207620
18.49815,209737
18.50440,215947
18.51065,221931
18.51692,225676
18.52317,227584
18.52942,230835
18.53568,238462
18.54193,257155
18.54818,290358
18.55445,340181
18.56070,375166
18.56695,366505
18.57322,324815
18.57947,267282
18.58572,227795
18.59198,212983
18.59823,209553
18.60448,228006
18.61075,248630
18.61700,281097
18.62325,287339
18.62952,266901
18.63577,249022
18.64202,237599
18.64827,236450
18.65453,234441
18.66078,238856
18.66703,242266
18.67330,250914
18.67955,256102
18.68580,240879
18.69207,209610
18.69832,209209
18.70457,215656
18.71083,254184
18.71708,282565
18.72333,294437
18.72960,277078
18.73585,246349
18.74210,225822
18.74837,226347
18.75462,221609
18.76087,205572
18.76713,192931
18.77338,180737
18.77963,181705
18.78590,177179
18.79215,180701
18.79840,180780
18.80467,189314
18.81092,199695
18.81717,205615
18.82343,209185
18.82968,207967
18.83593,211995
18.84220,232097
18.84845,237181
18.85470,223440
18.86095,221252
18.86722,251004
18.87347,358239
18.87972,814312
18.88598,1983776
18.89223,4515811
18.89848,7128930
18.90475,8800759
18.91100,7922994
18.91725,5034378
18.92352,2160669
18.92977,811524
18.93602,374655
18.94228,288067
18.94853,275958
18.95478,262957
18.96105,235574
18.96730,201410
18.97355,180960
18.97982,171518
18.98607,168983
18.99232,172791
18.99858,183142
19.00483,198022
19.01108,215676
19.01735,217045
19.02360,204927
19.02985,193258
19.03612,193361
19.04237,202054
19.04862,217746
19.05488,223574
19.06113,223786
19.06738,209806
19.07365,190474
19.07990,190709
19.08615,195509
19.09240,212773
19.09867,229093
19.10492,239719
19.11117,245617
19.11743,246629
19.12368,245933
19.12993,250501
19.13620,249884
19.14245,248674
19.14870,238147
19.15497,224455
19.16122,207376
19.16747,196534
19.17373,182147
19.17998,178886
19.18623,172049
19.19250,178482
19.19875,179739
19.20500,192245
19.21127,185739
19.21752,183236
19.22377,179813
19.23003,178153
19.23628,162386
19.24253,160545
19.24880,160403
19.25505,153387
19.26130,156629
19.26757,152629
19.27382,150100
19.28007,151756
19.28633,159849
19.29258,167275
19.29883,179600
19.30508,173753
19.31135,174121
19.31760,159825
19.32385,146681
19.33012,146611
19.33637,148041
19.34262,167975
19.34888,185809
19.35513,206567
19.36138,217925
19.36765,211519
19.37390,194462
19.38015,184905
19.38642,183991
19.39267,188822
19.39892,206094
19.40518,216413
19.41143,225693
19.41768,216051
19.42395,192375
19.43020,178263
19.43645,171485
19.44272,172508
19.44897,182034
19.45522,195934
19.46148,191096
19.46773,185606
19.47398,183476
19.48025,179621
19.48650,179138
19.49275,182557
19.49902,192795
19.50527,202155
19.51152,210005
19.51777,213619
19.52403,216005
19.53028,217576
19.53653,200310
19.54280,190217
19.54905,193816
19.55530,202695
19.56157,208833
19.56782,212481
19.57407,206852
19.58033,185710
19.58658,167964
19.59283,167564
19.59910,176810
19.60535,167436
19.61160,162729
19.61787,153887
19.62412,150405
19.63037,146902
19.63663,153082
19.64288,160981
19.64913,159973
19.65540,165215
19.66165,166816
19.66790,188651
19.67417,221927
19.68042,252914
19.68667,265362
19.69293,254686
19.69918,242606
19.70543,235561
19.71170,246917
19.71795,261092
19.72420,254944
19.73047,233047
19.73672,208193
19.74297,201606
19.74922,191638
19.75548,179927
19.76173,180131
19.76798,177808
19.77425,179030
19.78050,182708
19.78675,182715
19.79302,178075
19.79927,180266
19.80552,192277
19.81178,199139
19.81803,178433
19.82428,170882
19.83055,155994
19.83680,148913
19.84305,147831
19.84932,152287
19.85557,162175
19.86182,176470
19.86808,179839
19.87433,184134
19.88058,179965
19.88685,173802
19.89310,176448
19.89935,208831
19.90562,304147
19.91187,619722
19.91812,1459959
19.92438,2990763
19.93063,4451212
19.93688,4559354
19.94315,3249905
19.94940,1567230
19.95565,603350
19.96190,299230
19.96817,263806
19.97442,317491
19.98067,398062
19.98693,462425
19.99318,439743
19.99943,382387
20.00570,304345
20.01195,243333
20.01820,200175
20.02447,184530
20.03072,166491
20.03697,160370
20.04323,159565
20.04948,162397
20.05573,178835
20.06200,182639
20.06825,178618
20.07450,165684
20.08077,152581
20.08702,146186
20.09327,149206
20.09953,152648
20.10578,155611
20.11203,151872
20.11830,147336
20.12455,145963
20.13080,140180
20.13707,141229
20.14332,143926
20.14957,149865
20.15583,155065
20.16208,160577
20.16833,159254
20.17458,155225
20.18085,148463
20.18710,153887
20.19335,153504
20.19962,164607
20.20587,178858
20.21212,188872
20.21838,197976
20.22463,205843
20.23088,215632
20.23715,227750
20.24340,230192
20.24965,214452
20.25592,192531
20.26217,175866
20.26842,166256
20.27468,162913
20.28093,164374
20.28718,170875
20.29345,182530
20.29970,219849
20.30595,265636
20.31222,300870
20.31847,296293
20.32472,258887
20.33098,207942
20.33723,186032
20.34348,186616
20.34975,201696
20.35600,210926
20.36225,200445
20.36852,189357
20.37477,174281
20.38102,159054
20.38728,162606
20.39353,158800
20.39978,155439
20.40603,150804
20.41230,158010
20.41855,158712
20.42480,160231
20.43107,186576
20.43732,256866
20.44357,359983
20.44983,440884
20.45608,446531
20.46233,379786
20.46860,281712
20.47485,221914
20.48110,200433
20.48737,211637
20.49362,234652
20.49987,223740
20.50613,204581
20.51238,186408
20.51863,182260
20.52490,172304
20.53115,174507
20.53740,164433
20.54367,165411
20.54992,178005
20.55617,206539
20.56243,216272
20.56868,208561
20.57493,198616
20.58120,186642
20.58745,204837
20.59370,218762
20.59997,226385
20.60622,228270
20.61247,206309
20.61872,186030
20.62498,169512
20.63123,160540
20.63748,156345
20.64375,159125
20.65000,171328
20.65625,185186
20.66252,191493
20.66877,196629
20.67502,190907
20.68128,179490
20.68753,175937
20.69378,169072
20.70005,161453
20.70630,165362
20.71255,176709
20.71882,207715
20.72507,267352
20.73132,312349
20.73758,323712
20.74383,307368
20.75008,270013
20.75635,237972
20.76260,222591
20.76885,231357
20.77512,251542
20.78137,264293
20.78762,255516
20.79388,231196
20.80013,211499
20.80638,208492
20.81265,206741
20.81890,204174
20.82515,206569
20.83142,206213
20.83767,225901
20.84392,225970
20.85017,233814
20.85643,215122
20.86268,204603
20.86893,197976
20.87520,191734
20.88145,192343
20.88770,206299
20.89397,215852
20.90022,230584
20.90647,226917
20.91273,224661
20.91898,222018
20.92523,212432
20.93150,201008
20.93775,209022
20.94400,242180
20.95027,295832
20.95652,318218
20.96277,316350
20.96903,286922
20.97528,269467
20.98153,275207
20.98780,255568
20.99405,233890
21.00030,229868
21.00657,274978
21.01282,382176
21.01907,491191
21.02533,523317
21.03158,448847
21.03783,334765
21.04410,261768
21.05035,220817
21.05660,199219
21.06285,186471
21.06912,183706
21.07537,173140
21.08162,173767
21.08788,179753
21.09413,192035
21.10038,183438
21.10665,181724
21.11290,197546
21.11915,211525
21.12542,228555
21.13167,224211
21.13792,207015
21.14418,193848
21.15043,185858
21.15668,185915
21.16295,188784
21.16920,192705
21.17545,199938
21.18172,200186
21.18797,197119
21.19422,189085
21.20048,190597
21.20673,199884
21.21298,207816
21.21925,224374
21.22550,227743
21.23175,233869
21.23802,233809
21.24427,248553
21.25052,264104
21.25678,263813
21.26303,241199
21.26928,215201
21.27555,195006
21.28180,204743
21.28805,228172
21.29430,270482
21.30057,349655
21.30682,413140
21.31307,411989
21.31933,380663
21.32558,317102
21.33183,270369
21.33810,251262
21.34435,237575
21.35060,238435
21.35687,288620
21.36312,447118
21.36937,696793
21.37563,843488
21.38188,781633
21.38813,559164
21.39440,364989
21.40065,261809
21.40690,222830
21.41317,209193
21.41942,207866
21.42567,221178
21.43193,225797
21.43818,231903
21.44443,230709
21.45070,221222
21.45695,223721
21.46320,239789
21.46947,248996
21.47572,248720
21.48197,231137
21.48823,221429
21.49448,231776
21.50073,253856
21.50698,278425
21.51325,270439
21.51950,250788
21.52575,212732
21.53202,180195
21.53827,159752
21.54452,151252
21.55078,160826
21.55703,167298
21.56328,179907
21.56955,200703
21.57580,204646
21.58205,216703
21.58832,247798
21.59457,295279
21.60082,393260
21.60708,426341
21.61333,388270
21.61958,300123
21.62585,220464
21.63210,196202
21.63835,176818
21.64462,177286
21.65087,168519
21.65712,158856
21.66338,151257
21.66963,141275
21.67588,146028
21.68215,151722
21.68840,160243
21.69465,161629
21.70092,168091
21.70717,166587
21.71342,160418
21.71967,156016
21.72593,153882
21.73218,149301
21.73843,150716
21.74470,153207
21.75095,152218
21.75720,152824
21.76347,151937
21.76972,157627
21.77597,169398
21.78223,190778
21.78848,218454
21.79473,246024
21.80100,252604
21.80725,241421
21.81350,219789
21.81977,189803
21.82602,177687
21.83227,163962
21.83853,168428
21.84478,171884
21.85103,182884
21.85730,191128
21.86355,212607
21.86980,239031
21.87607,255404
21.88232,244151
21.88857,211601
21.89483,187258
21.90108,182454
21.90733,196661
21.91360,223801
21.91985,251303
21.92610,249429
21.93237,223479
21.93862,195266
21.94487,187032
21.95112,182361
21.95738,172883
21.96363,158525
21.96988,146883
21.97615,146117
21.98240,143852
21.98865,149522
21.99492,154723
22.00117,161370
22.00742,166253
22.01368,175366
22.01993,185725
22.02618,189341
22.03245,181645
22.03870,171861
22.04495,177990
22.05122,188656
22.05747,218039
22.06372,252225
22.06998,291359
22.07623,305956
22.08248,316042
22.08875,290004
22.09500,262471
22.10125,235884
22.10752,208206
22.11377,198861
22.12002,190733
22.12628,199432
22.13253,208264
22.13878,211321
22.14505,202612
22.15130,189763
22.15755,179936
22.16380,176507
22.17007,175863
22.17632,167779
22.18257,169939
22.18883,164622
22.19508,161768
22.20133,161527
22.20760,162108
22.21385,157589
22.22010,160811
22.22637,162606
22.23262,177607
22.23887,198370
22.24513,212613
22.25138,224214
22.25763,222317
22.26390,231201
22.27015,229955
22.27640,223473
22.28267,217248
22.28892,217834
22.29517,221187
22.30143,216006
22.30768,210197
22.31393,199030
22.32020,191748
22.32645,194305
22.33270,196053
22.33897,198923
22.34522,200813
22.35147,236142
22.35773,386599
22.36398,689356
22.37023,1104035
22.37650,1365804
22.38275,1190398
22.38900,776564
22.39525,458802
22.40152,295632
22.40777,234152
22.41402,204797
22.42028,193639
22.42653,192223
22.43278,204332
22.43905,223959
22.44530,235314
22.45155,240501
22.45782,275111
22.46407,325614
22.47032,380999
22.47658,394231
22.48283,349365
22.48908,288209
22.49535,238766
22.50160,220615
22.50785,203206
22.51412,191811
22.52037,189056
22.52662,175132
22.53288,183910
22.53913,237474
22.54538,361642
22.55165,521454
22.55790,606999
22.56415,594253
22.57042,449541
22.57667,336776
22.58292,264595
22.58918,228406
22.59543,213668
22.60168,206357
22.60793,203714
22.61420,190581
22.62045,188737
22.62670,189726
22.63297,200092
22.63922,221464
22.64547,291909
22.65173,391447
22.65798,500827
22.66423,566486
22.67050,546920
22.67675,437832
22.68300,336185
22.68927,272533
22.69552,239702
22.70177,212542
22.70803,195400
22.71428,182516
22.72053,176357
22.72680,175043
22.73305,171742
22.73930,180900
22.74557,179787
22.75182,185898
22.75807,192202
22.76433,189891
22.77058,200816
22.77683,232166
22.78310,336763
22.78935,748805
22.79560,2040966
22.80187,4910190
22.80812,9307767
22.81437,1.489778E+07
22.82062,1.796719E+07
22.82688,1.544198E+07
22.83313,8615031
22.83938,3286607
22.84565,1137967
22.85190,548516
22.85815,401218
22.86442,363186
22.87067,337190
22.87692,307716
22.88318,307299
22.88943,324165
22.89568,335147
22.90195,323163
22.90820,290803
22.91445,261785
22.92072,233842
22.92697,214431
22.93322,208090
22.93948,205723
22.94573,204669
22.95198,201752
22.95825,216114
22.96450,229992
22.97075,246218
22.97702,271895
22.98327,303720
22.98952,334307
22.99578,345723
23.00203,316905
23.00828,265747
23.01455,220764
23.02080,199509
23.02705,180212
23.03332,176101
23.03957,173741
23.04582,182170
23.05207,174564
23.05833,181070
23.06458,192003
23.07083,217302
23.07710,255879
23.08335,294884
23.08960,319097
23.09587,297231
23.10212,271885
23.10837,248249
23.11463,225552
23.12088,205374
23.12713,194933
23.13340,182530
23.13965,176355
23.14590,170440
23.15217,167675
23.15842,169050
23.16467,165484
23.17093,164662
23.17718,164198
23.18343,168265
23.18970,166775
23.19595,167405
23.20220,169002
23.20847,173459
23.21472,174710
23.22097,177395
23.22723,171978
23.23348,165747
23.23973,162780
23.24600,168209
23.25225,166124
23.25850,175222
23.26475,180928
23.27102,180919
23.27727,172037
23.28352,165291
23.28978,171004
23.29603,186290
23.30228,213578
23.30855,284930
23.31480,373397
23.32105,471208
23.32732,496742
23.33357,451053
23.33982,345410
23.34608,264123
23.35233,219958
23.35858,198705
23.36485,186939
23.37110,179144
23.37735,172106
23.38362,170088
23.38987,175122
23.39612,176885
23.40238,176651
23.40863,175731
23.41488,166332
23.42115,170403
23.42740,168956
23.43365,165489
23.43992,176286
23.44617,181309
23.45242,198242
23.45868,206375
23.46493,218577
23.47118,225551
23.47743,237099
23.48370,278198
23.48995,321616
23.49620,342095
23.50247,341718
23.50872,336106
23.51497,366453
23.52123,424063
23.52748,506239
23.53373,510395
23.54000,454238
23.54625,349650
23.55250,284866
23.55877,307460
23.56502,533657
23.57127,1203077
23.57753,2715401
23.58378,4973487
23.59003,6727904
23.59630,6395911
23.60255,5190388
23.60880,3069291
23.61507,1495075
23.62132,739170
23.62757,441979
23.63383,330602
23.64008,285820
23.64633,269950
23.65260,257099
23.65885,236874
23.66510,232716
23.67137,231772
23.67762,249879
23.68387,293537
23.69013,320083
23.69638,357327
23.70263,377463
23.70888,381643
23.71515,393533
23.72140,395240
23.72765,371686
23.73392,342968
23.74017,324877
23.74642,296094
23.75268,263380
23.75893,244153
23.76518,230108
23.77145,227609
23.77770,220628
23.78395,218305
23.79022,228186
23.79647,225646
23.80272,221803
23.80898,225254
23.81523,230280
23.82148,239551
23.82775,256394
23.83400,259220
23.84025,248521
23.84652,233688
23.85277,226433
23.85902,231269
23.86528,239195
23.87153,273283
23.87778,304653
23.88405,344148
23.89030,339039
23.89655,307491
23.90282,274100
23.90907,248641
23.91532,234941
23.92157,232739
23.92783,235850
23.93408,243161
23.94033,250734
23.94660,256118
23.95285,294244
23.95910,511676
23.96537,1192658
23.97162,2564492
23.97787,4500164
23.98413,7391344
23.99038,1.135373E+07
23.99663,1.691867E+07
24.00290,2.418174E+07
24.00915,2.61987E+07
24.01540,2.317822E+07
24.02167,1.509313E+07
24.02792,7675233
24.03417,3298566
24.04043,1606099
24.04668,1059287
24.05293,809933
24.05920,661922
24.06545,586870
24.07170,582463
24.07797,651792
24.08422,705877
24.09047,720562
24.09673,732866
24.10298,925996
24.10923,1622590
24.11550,2853187
24.12175,4549300
24.12800,5388966
24.13427,5228969
24.14052,3819727
24.14677,2295435
24.15302,1217982
24.15928,705486
24.16553,515375
24.17178,443081
24.17805,420745
24.18430,440027
24.19055,531635
24.19682,710998
24.20307,1164407
24.20932,2410591
24.21558,5311103
24.22183,1.044393E+07
24.22808,1.786231E+07
24.23435,2.611573E+07
24.24060,3.325925E+07
24.24685,3.781482E+07
24.25312,4.10979E+07
24.25937,4.204653E+07
24.26562,4.227884E+07
24.27188,4.177744E+07
24.27813,4.108879E+07
24.28438,3.388907E+07
24.29065,1.001594E+07
24.29690,3096577
24.30315,1955899
24.30942,1539568
24.31567,1315168
24.32192,1163771
24.32818,1076080
24.33443,1023847
24.34068,994435
24.34695,984246
24.35320,996623
24.35945,1021781
24.36570,1048814
24.37197,1161728
24.37822,1361886
24.38447,1582240
24.39073,1718617
24.39698,1662752
24.40323,1419183
24.40950,1128274
24.41575,924639
24.42200,823392
24.42827,820765
24.43452,915797
24.44077,1112623
24.44703,1367957
24.45328,1480518
24.45953,1324467
24.46580,1068848
24.47205,838253
24.47830,684113
24.48457,595451
24.49082,552176
24.49707,534495
24.50333,539104
24.50958,533408
24.51583,528420
24.52210,512439
24.52835,493021
24.53460,465278
24.54087,456188
24.54712,446684
24.55337,440502
24.55963,434637
24.56588,432351
24.57213,458539
24.57840,480069
24.58465,486567
24.59090,479556
24.59715,432011
24.60342,390485
24.60967,354980
24.61592,335552
24.62218,308029
24.62843,300482
24.63468,301050
24.64095,288088
24.64720,290775
24.65345,288116
24.65972,275602
24.66597,274929
24.67222,283756
24.67848,290645
24.68473,312073
24.69098,342833
24.69725,364703
24.70350,353864
24.70975,325408
24.71602,293650
24.72227,279602
24.72852,271099
24.73478,259669
24.74103,262104
24.74728,254278
24.75355,256408
24.75980,250354
24.76605,237205
24.77232,234119
24.77857,232963
24.78482,234095
24.79108,238463
24.79733,234016
24.80358,230740
24.80983,222034
24.81610,210419
24.82235,210755
24.82860,208502
24.83487,197775
24.84112,193751
24.84737,189524
24.85363,186378
24.85988,185457
24.86613,193862
24.87240,199703
24.87865,223626
24.88490,253227
24.89117,300978
24.89742,341557
24.90367,360567
24.90993,342852
24.91618,294430
24.92243,252460
24.92870,235120
24.93495,231914
24.94120,232586
24.94747,250465
24.95372,295129
24.95997,351324
24.96623,373826
24.97248,347079
24.97873,294915
24.98500,256244
24.99125,235532
24.99750,224445
25.00377,224969
25.01002,213202
25.01627,214581
25.02252,224793
25.02878,243766
25.03503,270191
25.04128,286562
25.04755,284085
25.05380,280387
25.06005,280102
25.06632,274628
25.07257,255540
25.07882,224051
25.08508,206361
25.09133,193662
25.09758,191612
25.10385,190028
25.11010,191276
25.11635,191599
25.12262,193269
25.12887,199102
25.13512,203380
25.14138,204811
25.14763,199351
25.15388,179424
25.16015,167752
25.16640,169128
25.17265,159204
25.17892,165536
25.18517,178661
25.19142,184634
25.19768,195664
25.20393,193636
25.21018,182587
25.21645,173083
25.22270,166883
25.22895,154929
25.23522,155831
25.24147,159954
25.24772,166756
25.25397,173560
25.26023,191517
25.26648,210755
25.27273,210097
25.27900,208781
25.28525,207582
25.29150,218529
25.29777,245892
25.30402,273912
25.31027,285082
25.31653,258775
25.32278,223307
25.32903,196889
25.33530,181838
25.34155,175148
25.34780,169793
25.35407,167806
25.36032,159813
25.36657,161183
25.37283,160897
25.37908,164805
25.38533,164231
25.39160,179330
25.39785,215583
25.40410,316703
25.41037,451329
25.41662,604078
25.42287,639455
25.42913,551250
25.43538,432527
25.44163,347742
25.44790,289996
25.45415,261005
25.46040,246794
25.46665,243938
25.47292,228958
25.47917,220610
25.48542,210259
25.49168,207828
25.49793,216604
25.50418,231865
25.51045,238868
25.51670,242680
25.52295,243053
25.52922,258173
25.53547,297322
25.54172,387770
25.54798,495618
25.55423,553489
25.56048,524597
25.56675,410297
25.57300,309659
25.57925,236965
25.58552,202857
25.59177,185826
25.59802,177998
25.60428,174902
25.61053,179813
25.61678,180802
25.62305,177935
25.62930,170830
25.63555,170564
25.64182,162614
25.64807,162868
25.65432,159685
25.66058,155215
25.66683,154186
25.67308,149436
25.67933,149834
25.68560,150001
25.69185,157903
25.69810,153646
25.70437,151743
25.71062,149063
25.71687,146942
25.72313,145743
25.72938,141128
25.73563,136700
25.74190,144429
25.74815,142108
25.75440,142697
25.76067,143443
25.76692,146256
25.77317,147167
25.77943,146408
25.78568,147204
25.79193,156362
25.79820,157062
25.80445,154449
25.81070,150812
25.81697,143152
25.82322,143033
25.82947,141041
25.83573,138503
25.84198,135181
25.84823,137202
25.85450,141309
25.86075,144114
25.86700,145880
25.87327,153459
25.87952,150134
25.88577,151043
25.89203,150940
25.89828,151444
25.90453,151402
25.91078,153736
25.91705,153663
25.92330,148777
25.92955,139867
25.93582,138108
25.94207,139013
25.94832,139334
25.95458,140265
25.96083,138052
25.96708,136022
25.97335,137045
25.97960,145471
25.98585,143215
25.99212,145975
25.99837,147278
26.00462,143063
26.01088,142171
26.01713,146096
26.02338,144273
26.02965,138582
26.03590,145545
26.04215,148379
26.04842,153536
26.05467,156298
26.06092,158889
26.06718,162083
26.07343,163669
26.07968,165272
26.08595,172677
26.09220,172994
26.09845,171144
26.10472,173336
26.11097,164244
26.11722,162490
26.12347,157524
26.12973,153259
26.13598,146810
26.14223,144430
26.14850,142703
26.15475,139091
26.16100,139413
26.16727,138185
26.17352,143558
26.17977,146367
26.18603,144376
26.19228,146847
26.19853,143577
26.20480,137639
26.21105,136126
26.21730,135302
26.22357,138975
26.22982,139732
26.23607,137711
26.24233,140722
26.24858,136679
26.25483,136046
26.26110,139925
26.26735,143066
26.27360,139603
26.27987,140366
26.28612,140564
26.29237,139398
26.29863,145484
26.30488,147269
26.31113,146628
26.31740,145250
26.32365,144815
26.32990,140830
26.33617,141618
26.34242,143227
26.34867,143085
26.35492,144889
26.36118,152527
26.36743,171198
26.37368,216578
26.37995,297332
26.38620,390312
26.39245,442384
26.39872,427647
26.40497,325452
26.41122,236840
26.41748,188300
26.42373,174939
26.42998,165170
26.43625,161182
26.44250,163285
26.44875,158861
26.45502,160040
26.46127,159998
26.46752,155301
26.47378,157412
26.48003,159591
26.48628,155596
26.49255,155883
26.49880,165318
26.50505,162632
26.51132,159347
26.51757,158160
26.52382,160742
26.53008,174016
26.53633,185330
26.54258,192069
26.54885,196042
26.55510,195983
26.56135,175659
26.56760,166145
26.57387,158798
26.58012,158857
26.58637,154685
26.59263,153124
26.59888,153519
26.60513,157392
26.61140,166266
26.61765,174659
26.62390,178672
26.63017,182421
26.63642,176502
26.64267,169734
26.64893,175168
26.65518,207089
26.66143,274055
26.66770,411244
26.67395,556554
26.68020,716683
26.68647,744598
26.69272,656935
26.69897,541178
26.70523,466176
26.71148,421136
26.71773,378893
26.72400,331199
26.73025,278312
26.73650,250268
26.74277,224050
26.74902,222834
26.75527,232405
26.76153,270107
26.76778,354858
26.77403,436939
26.78030,470366
26.78655,454073
26.79280,404278
26.79905,366710
26.80532,337957
26.81157,326256
26.81782,303220
26.82408,303909
26.83033,371107
26.83658,553558
26.84285,781366
26.84910,884611
26.85535,789900
26.86162,574511
26.86787,411838
26.87412,311732
26.88038,279838
26.88663,300425
26.89288,362285
26.89915,429009
26.90540,566061
26.91165,1022992
26.91792,2317993
26.92417,5018887
26.93042,9516106
26.93668,1.560684E+07
26.94293,2.13736E+07
26.94918,2.656729E+07
26.95545,2.29238E+07
26.96170,1.278944E+07
26.96795,5408696
26.97422,2698356
26.98047,1630899
26.98672,1082126
26.99298,732441
26.99923,548494
27.00548,453912
27.01173,453523
27.01800,554621
27.02425,808525
27.03050,1071649
27.03677,1234953
27.04302,1137192
27.04927,889072
27.05553,630220
27.06178,486874
27.06803,419641
27.07430,388476
27.08055,347321
27.08680,325756
27.09307,294575
27.09932,269677
27.10557,259288
27.11183,244313
27.11808,237929
27.12433,244134
27.13060,274023
27.13685,334454
27.14310,413147
27.14937,459211
27.15562,450097
27.16187,382866
27.16813,325698
27.17438,282740
27.18063,262215
27.18690,263664
27.19315,256907
27.19940,249758
27.20567,245609
27.21192,241148
27.21817,243215
27.22443,242673
27.23068,241941
27.23693,231294
27.24318,230797
27.24945,231615
27.25570,247370
27.26195,249991
27.26822,248359
27.27447,241258
27.28072,226854
27.28698,228034
27.29323,217311
27.29948,216672
27.30575,217352
27.31200,214980
27.31825,222590
27.32452,217559
27.33077,210093
27.33702,214984
27.34328,213256
27.34953,217271
27.35578,217179
27.36205,220853
27.36830,227921
27.37455,232197
27.38082,221468
27.38707,218570
27.39332,210204
27.39958,224017
27.40583,238940
27.41208,260253
27.41835,273656
27.42460,276321
27.43085,265395
27.43712,245036
27.44337,231811
27.44962,228553
27.45587,215375
27.46213,208460
27.46838,202450
27.47463,199731
27.48090,196150
27.48715,198919
27.49340,197224
27.49967,198789
27.50592,203330
27.51217,197344
27.51843,191146
27.52468,188914
27.53093,195560
27.53720,201330
27.54345,197182
27.54970,195196
27.55597,197852
27.56222,189189
27.56847,189077
27.57473,186062
27.58098,190135
27.58723,185487
27.59350,191926
27.59975,189523
27.60600,199945
27.61227,195947
27.61852,195060
27.62477,189405
27.63103,196861
27.63728,196772
27.64353,196366
27.64980,193259
27.65605,188557
27.66230,190823
27.66855,191465
27.67482,195131
27.68107,193415
27.68732,197658
27.69358,192868
27.69983,202048
27.70608,202035
27.71235,201509
27.71860,203634
27.72485,215110
27.73112,217595
27.73737,225354
27.74362,228917
27.74988,225797
27.75613,224598
27.76238,225120
27.76865,221211
27.77490,222404
27.78115,218080
27.78742,208817
27.79367,209212
27.79992,196536
27.80618,198610
27.81243,200027
27.81868,199058
27.82495,200989
27.83120,202295
27.83745,202012
27.84372,214560
27.84997,244455
27.85622,312227
27.86248,426624
27.86873,542957
27.87498,667860
27.88125,685513
27.88750,625632
27.89375,520330
27.90000,425577
27.90627,356182
27.91252,326302
27.91877,303581
27.92503,280635
27.93128,271019
27.93753,260720
27.94380,251014
27.95005,245546
27.95630,240042
27.96257,234534
27.96882,233901
27.97507,236276
27.98133,226587
27.98758,242922
27.99383,237412
28.00010,249656
28.00635,243351
28.01260,235328
28.01887,232476
28.02512,232667
28.03137,228370
28.03763,219052
28.04388,227185
28.05013,217608
28.05640,212542
28.06265,213682
28.06890,215716
28.07517,219049
28.08142,210869
28.08767,208946
28.09393,215456
28.10018,214141
28.10643,213465
28.11268,217155
28.11895,221052
28.12520,218474
28.13145,213936
28.13772,214282
28.14397,219707
28.15022,213998
28.15648,215292
28.16273,217263
28.16898,216509
28.17525,212693
28.18150,209198
28.18775,210367
28.19402,213359
28.20027,211765
28.20652,211953
28.21278,213502
28.21903,216927
28.22528,217391
28.23155,221129
28.23780,216771
28.24405,211206
28.25032,213742
28.25657,212725
28.26282,213009
28.26908,212887
28.27533,212022
28.28158,210649
28.28785,210949
28.29410,216342
28.30035,213060
28.30662,215828
28.31287,219145
28.31912,219553
28.32537,224942
28.33163,229473
28.33788,234420
28.34413,238550
28.35040,246467
28.35665,258271
28.36290,268961
28.36917,272148
28.37542,273501
28.38167,275107
28.38793,289597
28.39418,287754
28.40043,297945
28.40670,301763
28.41295,308139
28.41920,310966
28.42547,311561
28.43172,303049
28.43797,295548
28.44423,296643
28.45048,296035
28.45673,288262
28.46300,282052
28.46925,277637
28.47550,283127
28.48177,271293
28.48802,269020
28.49427,266936
28.50053,256522
28.50678,258891
28.51303,251296
28.51930,254124
28.52555,249303
28.53180,242330
28.53807,240633
28.54432,237935
28.55057,235711
28.55682,227052
28.56308,223796
28.56933,230013
28.57558,228271
28.58185,225331
28.58810,221405
28.59435,227017
28.60062,218890
28.60687,213642
28.61312,221075
28.61938,218430
28.62563,224777
28.63188,223831
28.63815,216492
28.64440,217896
28.65065,212493
28.65692,214405
28.66317,219094
28.66942,214303
28.67568,214748
28.68193,217069
28.68818,218668
28.69445,210159
28.70070,212965
28.70695,206643
28.71322,216130
28.71947,208909
28.72572,209212
28.73198,213506
28.73823,213917
28.74448,212217
28.75075,213922
28.75700,208450
28.76325,213472
28.76950,210120
28.77577,202269
28.78202,204458
28.78827,203918
28.79453,205923
28.80078,206100
28.80703,208011
28.81330,208619
28.81955,207296
28.82580,215917
28.83207,226223
28.83832,225779
28.84457,222132
28.85083,215635
28.85708,218675
28.86333,219802
28.86960,213927
28.87585,214164
28.88210,210979
28.88837,213669
28.89462,219220
28.90087,207890
28.90713,212525
28.91338,207508
28.91963,211952
28.92590,205715
28.93215,212696
28.93840,207295
28.94467,203616
28.95092,204743
28.95717,201721
28.96343,207347
28.96968,198683
28.97593,209047
28.98220,209220
28.98845,207216
28.99470,197050
29.00095,205514
29.00722,197773
29.01347,202210
29.01972,206410
29.02598,203059
29.03223,202756
29.03848,202009
29.04475,200895
29.05100,196588
29.05725,198502
29.06352,200830
29.06977,195558
29.07602,195664
29.08228,194633
29.08853,194070
29.09478,203645
29.10105,199327
29.10730,195562
29.11355,198141
29.11982,204297
29.12607,201924
29.13232,199486
29.13858,196053
29.14483,192056
29.15108,196640
29.15735,194787
29.16360,203096
29.16985,197573
29.17612,202432
29.18237,201783
29.18862,193008
29.19488,199168
29.20113,192077
29.20738,192345
29.21363,203014
29.21990,211275
29.22615,239334
29.23240,267308
29.23867,312519
29.24492,366164
29.25117,413464
29.25743,439400
29.26368,436833
29.26993,408190
29.27620,366543
29.28245,321345
29.28870,292267
29.29497,273975
29.30122,257608
29.30747,246993
29.31373,236900
29.31998,237045
29.32623,226886
29.33250,224730
29.33875,221694
29.34500,213632
29.35127,216913
29.35752,212093
29.36377,217820
29.37003,215424
29.37628,217408
29.38253,210755
29.38880,211098
29.39505,205247
29.40130,210263
29.40757,204124
29.41382,204619
29.42007,206028
29.42633,199679
29.43258,195697
29.43883,200283
29.44508,199425
29.45135,201225
29.45760,198293
29.46385,197954
29.47012,197391
29.47637,198863
29.48262,193384
29.48888,193549
29.49513,195500
29.50138,196596
29.50765,194456
29.51390,192299
29.52015,195977
29.52642,188303
29.53267,196951
29.53892,192906
29.54518,192145
29.55143,196419
29.55768,195440
29.56395,189041
29.57020,190184
29.57645,187527
29.58272,190816
29.58897,191616
29.59522,190551
29.60148,191160
29.60773,195662
29.61398,190334
29.62025,192115
29.62650,197376
29.63275,194239
29.63902,192955
29.64527,197424
29.65152,200197
29.65777,198429
29.66403,195441
29.67028,193450
29.67653,194735
29.68280,196723
29.68905,191774
29.69530,187083
29.70157,189117
29.70782,190809
29.71407,187318
29.72033,188621
29.72658,190020
29.73283,190731
29.73910,181701
29.74535,188681
29.75160,188851
29.75787,182197
29.76412,189387
29.77037,183623
29.77663,186268
29.78288,182089
29.78913,186017
29.79540,192721
29.80165,186135
29.80790,184471
29.81417,189585
29.82042,191209
29.82667,185748
29.83293,187362
29.83918,185185
29.84543,183726
29.85170,182959
29.85795,183021
29.86420,186358
29.87047,184873
29.87672,182628
29.88297,188114
29.88922,183375
29.89548,188041
29.90173,181345
29.90798,184021
29.91425,185688
29.92050,188539
29.92675,187839
29.93302,190164
29.93927,185369
29.94552,181898
29.95178,186388
29.95803,183884
29.96428,184889
29.97055,184624
29.97680,181509
29.98305,179843
29.98932,186605
29.99557,178715
30.00182,184109
30.00808,179229
30.01433,186169
30.02058,178199
30.02685,182422
30.03310,179975
30.03935,184376
30.04562,182578
30.05187,179514
30.05812,183362
30.06438,184582
30.07063,181388
30.07688,183615
30.08315,185907
30.08940,177667
30.09565,180174
30.10190,182699
30.10817,175356
30.11442,179266
30.12067,177274
30.12693,174725
30.13318,180873
30.13943,180901
30.14570,178920
30.15195,179238
30.15820,181935
30.16447,174800
30.17072,178475
30.17697,174029
30.18323,182273
30.18948,175851
30.19573,178968
30.20200,174796
30.20825,180736
30.21450,181762
30.22077,183593
30.22702,177581
30.23327,182599
30.23953,179648
30.24578,182392
30.25203,182990
30.25830,177417
30.26455,181091
30.27080,180339
30.27707,177263
30.28332,177593
30.28957,183970
30.29583,178283
30.30208,180230
30.30833,175682
30.31458,171863
30.32085,176359
30.32710,177349
30.33335,176842
30.33962,177214
30.34587,174036
30.35212,181653
30.35838,178090
30.36463,175697
30.37088,174979
30.37715,180122
30.38340,172002
30.38965,169112
30.39592,171587
30.40217,175079
30.40842,170613
30.41468,178158
30.42093,176577
30.42718,173889
30.43345,173262
30.43970,175251
30.44595,178786
30.45222,172098
30.45847,171403
30.46472,179645
30.47098,171213
30.47723,176785
30.48348,172136
30.48975,175030
30.49600,176399
30.50225,171744
30.50852,172080
30.51477,170518
30.52102,171397
30.52728,177198
30.53353,172193
30.53978,170640
30.54603,178962
30.55230,174721
30.55855,171050
30.56480,175368
30.57107,171308
30.57732,176196
30.58357,170844
30.58983,171535
30.59608,167629
30.60233,167662
30.60860,168272
30.61485,170663
30.62110,173923
30.62737,171310
30.63362,173167
30.63987,173944
30.64613,170315
30.65238,174515
30.65863,171327
30.66490,169714
30.67115,173161
30.67740,177647
30.68367,176924
30.68992,182977
30.69617,179448
30.70243,188612
30.70868,190846
30.71493,188682
30.72120,198755
30.72745,189846
30.73370,188174
30.73997,187685
30.74622,181114
30.75247,173376
30.75872,172892
30.76498,174364
30.77123,172896
30.77748,175569
30.78375,175344
30.79000,174621
30.79625,172681
30.80252,169716
30.80877,173472
30.81502,173936
30.82128,169692
30.82753,167588
30.83378,167836
30.84005,168427
30.84630,174446
30.85255,168803
30.85882,168849
30.86507,172995
30.87132,170919
30.87758,168875
30.88383,167764
30.89008,172631
30.89635,167231
30.90260,171197
30.90885,169103
30.91512,166231
30.92137,172393
30.92762,171330
30.93388,168901
30.94013,176523
30.94638,168855
30.95265,176712
30.95890,170138
30.96515,172184
30.97140,177687
30.97767,177396
30.98392,184010
30.99017,187499
30.99643,197048
31.00268,221626
31.00893,229571
31.01520,247501
31.02145,250018
31.02770,253556
31.03397,249907
31.04022,241359
31.04647,228940
31.05273,217489
31.05898,207012
31.06523,193689
31.07150,186373
31.07775,186305
31.08400,182499
31.09027,181655
31.09652,179257
31.10277,177629
31.10903,176682
31.11528,181264
31.12153,171957
31.12780,174413
31.13405,174917
31.14030,170198
31.14657,171950
31.15282,174897
31.15907,172531
31.16533,174276
31.17158,170130
31.17783,170723
31.18410,169193
31.19035,168597
31.19660,169893
31.20285,174988
31.20912,171055
31.21537,171365
31.22162,169783
31.22788,169061
31.23413,167941
31.24038,169942
31.24665,169788
31.25290,168427
31.25915,167056
31.26542,167347
31.27167,169272
31.27792,163314
31.28418,168836
31.29043,164964
31.29668,163154
31.30295,169107
31.30920,166946
31.31545,165058
31.32172,167516
31.32797,166775
31.33422,169266
31.34048,167244
31.34673,168465
31.35298,162852
31.35925,169161
31.36550,165084
31.37175,164556
31.37802,170216
31.38427,172039
31.39052,169946
31.39678,171122
31.40303,162723
31.40928,174173
31.41553,169840
31.42180,173909
31.42805,165386
31.43430,166838
31.44057,172454
31.44682,167292
31.45307,166660
31.45933,168247
31.46558,177047
31.47183,166070
31.47810,168091
31.48435,166064
31.49060,169856
31.49687,166368
31.50312,166232
31.50937,167588
31.51563,170903
31.52188,172535
31.52813,163293
31.53440,167569
31.54065,162696
31.54690,162476
31.55317,167128
31.55942,165403
31.56567,163215
31.57193,160475
31.57818,162053
31.58443,161195
31.59070,169139
31.59695,161072
31.60320,158715
31.60947,161597
31.61572,162083
31.62197,165006
31.62823,162284
31.63448,158730
31.64073,162039
31.64698,167133
31.65325,162447
31.65950,158463
31.66575,162297
31.67202,157037
31.67827,164900
31.68452,159179
31.69078,162460
31.69703,159216
31.70328,164702
31.70955,160146
31.71580,158896
31.72205,156475
31.72832,163827
31.73457,157644
31.74082,163165
31.74708,160983
31.75333,163448
31.75958,160830
31.76585,159721
31.77210,160381
31.77835,160028
31.78462,165496
31.79087,163828
31.79712,160797
31.80338,160996
31.80963,159587
31.81588,159750
31.82215,159305
31.82840,157379
31.83465,162215
31.84092,159387
31.84717,159139
31.85342,156855
31.85967,156140
31.86593,162243
31.87218,161493
31.87843,159693
31.88470,159315
31.89095,161872
31.89720,158132
31.90347,159547
31.90972,156509
31.91597,158787
31.92223,158632
31.92848,156564
31.93473,153775
31.94100,156437
31.94725,159800
31.95350,155170
31.95977,153381
31.96602,156401
31.97227,155817
31.97853,157720
31.98478,157085
31.99103,158366
31.99730,154907
32.00355,151172
32.00980,155588
32.01607,155378
32.02232,155040
32.02857,153058
32.03483,156421
32.04108,156681
32.04733,155402
32.05360,157709
32.05985,153611
32.06610,153923
32.07237,156820
32.07862,154588
32.08487,151587
32.09112,154573
32.09738,152527
32.10363,156739
32.10988,152543
32.11615,158431
32.12240,154616
32.12865,152638
32.13492,154570
32.14117,159564
32.14742,156544
32.15368,152808
32.15993,158818
32.16618,154016
32.17245,160292
32.17870,150554
32.18495,152748
32.19122,153325
32.19747,155501
32.20372,159109
32.20998,156761
32.21623,152703
32.22248,154963
32.22875,160769
32.23500,154712
32.24125,150677
32.24752,151164
32.25377,152052
32.26002,154090
32.26628,157575
32.27253,155085
32.27878,158562
32.28505,161933
32.29130,157694
32.29755,161435
32.30380,154736
32.31007,156741
32.31632,157878
32.32257,164054
32.32883,160423
32.33508,153997
32.34133,156589
32.34760,152608
32.35385,157904
32.36010,156482
32.36637,153023
32.37262,159390
32.37887,151096
32.38513,156106
32.39138,158979
32.39763,153136
32.40390,155673
32.41015,154638
32.41640,149655
32.42267,150656
32.42892,151179
32.43517,151709
32.44143,153164
32.44768,150939
32.45393,152460
32.46020,150259
32.46645,151744
32.47270,151335
32.47897,151899
32.48522,148626
32.49147,148996
32.49773,152883
32.50398,150597
32.51023,153375
32.51650,149453
32.52275,150705
32.52900,157616
32.53525,155799
32.54152,154977
32.54777,155116
32.55402,152133
32.56028,151576
32.56653,153465
32.57278,149280
32.57905,148678
32.58530,147463
32.59155,156052
32.59782,153887
32.60407,150908
32.61032,150363
32.61658,148306
32.62283,151915
32.62908,149946
32.63535,151866
32.64160,148582
32.64785,155969
32.65412,155154
32.66037,146811
32.66662,148935
32.67288,148458
32.67913,151357
32.68538,150071
32.69165,152107
32.69790,150065
32.70415,148247
32.71042,147559
32.71667,147270
32.72292,146269
32.72918,147761
32.73543,146689
32.74168,154145
32.74793,152511
32.75420,145833
32.76045,148897
32.76670,144970
32.77297,150155
32.77922,149440
32.78547,149727
32.79173,145833
32.79798,154905
32.80423,151673
32.81050,148206
32.81675,151109
32.82300,147694
32.82927,144541
32.83552,145528
32.84177,147285
32.84803,145874
32.85428,147741
32.86053,148236
32.86680,145749
32.87305,147661
32.87930,149488
32.88557,153232
32.89182,149969
32.89807,151319
32.90433,146418
32.91058,148460
32.91683,145713
32.92310,146060
32.92935,149561
32.93560,150332
32.94187,149158
32.94812,148146
32.95437,153068
32.96062,145899
32.96688,145293
32.97313,144696
32.97938,144991
32.98565,143316
32.99190,149510
32.99815,148677
33.00442,147036
33.01067,144485
33.01692,144486
33.02318,145658
33.02943,145570
33.03568,144587
33.04195,147385
33.04820,146746
33.05445,145452
33.06072,145082
33.06697,146191
33.07322,151062
33.07948,148584
33.08573,140139
33.09198,143620
33.09825,146397
33.10450,146255
33.11075,149213
33.11702,144116
33.12327,145629
33.12952,145176
33.13578,144359
33.14203,148023
33.14828,150643
33.15455,155284
33.16080,151948
33.16705,152322
33.17332,157919
33.17957,159336
33.18582,163033
33.19207,159148
33.19833,160875
33.20458,159289
33.21083,163336
33.21710,159295
33.22335,155568
33.22960,158140
33.23587,151418
33.24212,155384
33.24837,151631
33.25463,152628
33.26088,145968
33.26713,146094
33.27340,147595
33.27965,145796
33.28590,149909
33.29217,149271
33.29842,147639
33.30467,145049
33.31093,145925
33.31718,144218
33.32343,148676
33.32970,145814
33.33595,147460
33.34220,145690
33.34847,152892
33.35472,149937
33.36097,155702
33.36723,151583
33.37348,157561
33.37973,162365
33.38600,162195
33.39225,170397
33.39850,163714
33.40475,167983
33.41102,166038
33.41727,165270
33.42352,160237
33.42978,156007
33.43603,155472
33.44228,155097
33.44855,155970
33.45480,150409
33.46105,144648
33.46732,145028
33.47357,144531
33.47982,149406
33.48608,140670
33.49233,145528
33.49858,143279
33.50485,142564
33.51110,145902
33.51735,149560
33.52362,145944
33.52987,145477
33.53612,141883
33.54238,142253
33.54863,143132
33.55488,147279
33.56115,147375
33.56740,142798
33.57365,148070
33.57992,145507
33.58617,145256
33.59242,146704
33.59868,146524
33.60493,140525
33.61118,145209
33.61743,150844
33.62370,140212
33.62995,143095
33.63620,140135
33.64247,142024
33.64872,140090
33.65497,142898
33.66123,141313
33.66748,141446
33.67373,145000
33.68000,140790
33.68625,139638
33.69250,143706
33.69877,147183
33.70502,142402
33.71127,145577
33.71753,138449
33.72378,141453
33.73003,141379
33.73630,140522
33.74255,141207
33.74880,143290
33.75507,144006
33.76132,143836
33.76757,140861
33.77383,144102
33.78008,143953
33.78633,140765
33.79260,137694
33.79885,141416
33.80510,141759
33.81137,136785
33.81762,140269
33.82387,137909
33.83013,142019
33.83638,136860
33.84263,137933
33.84888,139107
33.85515,142229
33.86140,139493
33.86765,139076
33.87392,138080
33.88017,140671
33.88642,140807
33.89268,141145
33.89893,140444
33.90518,137356
33.91145,136529
33.91770,137000
33.92395,138432
33.93022,137679
33.93647,138624
33.94272,138086
33.94898,141239
33.95523,139436
33.96148,138293
33.96775,136929
33.97400,138751
33.98025,136523
33.98652,138486
33.99277,140915
33.99902,141461
34.00528,135664
34.01153,140456
34.01778,137737
34.02405,140700
34.03030,138496
34.03655,136240
34.04282,138386
34.04907,139436
34.05532,137780
34.06157,138297
34.06783,141047
34.07408,139874
34.08033,138741
34.08660,138084
34.09285,135917
34.09910,137516
34.10537,141881
34.11162,138466
34.11787,140584
34.12413,140050
34.13038,137176
34.13663,136015
34.14290,141309
34.14915,138525
34.15540,138013
34.16167,140207
34.16792,135526
34.17417,137022
34.18043,140032
34.18668,142157
34.19293,137117
34.19920,134239
34.20545,141334
34.21170,139698
34.21797,137071
34.22422,138294
34.23047,131318
34.23673,139581
34.24298,135586
34.24923,136165
34.25550,137219
34.26175,138699
34.26800,136247
34.27425,140873
34.28052,135779
34.28677,140244
34.29302,139727
34.29928,137206
34.30553,132055
34.31178,135225
34.31805,135725
34.32430,138171
34.33055,134433
34.33682,139284
34.34307,137777
34.34932,137984
34.35558,135441
34.36183,141002
34.36808,132639
34.37435,135659
34.38060,138581
34.38685,134402
34.39312,136320
34.39937,132385
34.40562,132220
34.41188,135434
34.41813,137490
34.42438,137128
34.43065,135696
34.43690,129697
34.44315,137121
34.44942,141054
34.45567,136715
34.46192,135124
34.46818,133790
34.47443,134183
34.48068,135635
34.48695,135198
34.49320,133353
34.49945,136928
34.50570,132911
34.51197,139110
34.51822,135061
34.52447,132872
34.53073,139096
34.53698,136501
34.54323,133087
34.54950,135029
34.55575,134036
34.56200,131104
34.56827,133223
34.57452,133012
34.58077,135164
34.58703,133404
34.59328,133462
34.59953,135862
34.60580,133093
34.61205,135585
34.61830,136688
34.62457,136856
34.63082,133481
34.63707,134879
34.64333,133240
34.64958,132427
34.65583,134583
34.66210,136297
34.66835,136253
34.67460,139151
34.68087,134088
34.68712,137459
34.69337,131359
34.69963,134915
34.70588,135845
34.71213,135360
34.71838,133581
34.72465,131987
34.73090,132153
34.73715,134265
34.74342,136619
34.74967,133045
34.75592,134231
34.76218,136435
34.76843,136506
34.77468,135008
34.78095,128040
34.78720,132783
34.79345,131862
34.79972,134092
34.80597,133383
34.81222,137532
34.81848,130993
34.82473,130800
34.83098,129000
34.83725,132318
34.84350,134173
34.84975,132812
34.85602,132964
34.86227,133322
34.86852,131201
34.87478,129594
34.88103,129166
34.88728,130832
34.89355,134605
34.89980,132805
34.90605,133249
34.91232,132699
34.91857,130209
34.92482,131168
34.93108,134302
34.93733,131616
34.94358,131896
34.94983,135966
34.95610,130491
34.96235,131274
34.96860,133250
34.97487,129163
34.98112,129691
34.98737,133353
34.99363,130247
34.99988,134460
35.00613,128660
35.01240,131884
35.01865,135809
35.02490,131967
35.03117,135856
35.03742,130843
35.04367,126565
35.04993,130270
35.05618,133906
35.06243,130826
35.06870,130882
35.07495,128611
35.08120,129469
35.08747,136780
35.09372,130703
35.09997,130504
35.10623,127699
35.11248,131188
35.11873,127317
35.12500,128245
35.13125,129597
35.13750,133724
35.14377,127002
35.15002,135349
35.15627,130093
35.16253,130624
35.16878,129922
35.17503,132178
35.18128,129398
35.18755,131118
35.19380,134572
35.20005,130573
35.20632,127365
35.21257,133501
35.21882,127010
35.22508,128139
35.23133,131511
35.23758,128692
35.24385,131200
35.25010,132244
35.25635,130601
35.26262,125930
35.26887,128076
35.27512,127911
35.28138,132227
35.28763,126841
35.29388,127844
35.30015,128630
35.30640,129032
35.31265,128907
35.31892,131744
35.32517,126622
35.33142,129226
35.33768,131261
35.34393,126341
35.35018,129808
35.35645,127793
35.36270,126517
35.36895,130004
35.37522,124868
35.38147,130193
35.38772,129448
35.39397,126294
35.40023,125935
35.40648,131726
35.41273,125628
35.41900,127097
35.42525,131209
35.43150,130449
35.43777,129691
35.44402,128286
35.45027,130095
35.45653,132495
35.46278,128165
35.46903,129236
35.47530,129716
35.48155,127141
35.48780,132158
35.49407,128597
35.50032,129969
35.50657,132229
35.51283,126464
35.51908,131002
35.52533,129927
35.53160,128697
35.53785,130518
35.54410,130861
35.55037,128079
35.55662,127171
35.56287,126024
35.56913,124145
35.57538,127657
35.58163,126477
35.58790,129282
35.59415,130621
35.60040,130873
35.60665,127854
35.61292,135041
35.61917,130033
35.62542,130747
35.63168,129356
35.63793,131403
35.64418,131920
35.65045,127118
35.65670,129853
35.66295,126903
35.66922,127265
35.67547,126334
35.68172,124785
35.68798,127789
35.69423,126665
35.70048,125972
35.70675,126742
35.71300,126407
35.71925,132648
35.72552,125181
35.73177,123549
35.73802,128252
35.74428,129785
35.75053,130982
35.75678,126968
35.76305,122804
35.76930,124914
35.77555,124734
35.78182,128076
35.78807,129204
35.79432,128966
35.80058,126929
35.80683,129181
35.81308,127651
35.81935,129859
35.82560,126218
35.83185,130801
35.83810,124635
35.84437,128850
35.85062,123609
35.85687,131355
35.86313,125259
35.86938,124438
35.87563,126266
35.88190,124638
35.88815,128186
35.89440,125990
35.90067,125022
35.90692,125218
35.91317,122214
35.91943,127065
35.92568,123786
35.93193,122516
35.93820,125868
35.94445,127558
35.95070,123435
35.95697,125332
35.96322,126410
35.96947,123373
35.97573,127348
35.98198,122001
35.98823,123638
35.99450,124247
36.00075,122312
36.00700,122940
36.01327,127577
36.01952,126982
36.02577,127513
36.03203,127070
36.03828,124498
36.04453,122620
36.05078,125333
36.05705,124208
36.06330,124857
36.06955,122552
36.07582,121337
36.08207,124013
36.08832,122580
36.09458,123364
36.10083,122172
36.10708,120276
36.11335,122836
36.11960,126777
36.12585,125206
36.13212,123549
36.13837,122585
36.14462,122415
36.15088,120575
36.15713,122474
36.16338,125089
36.16965,122205
36.17590,121258
36.18215,123574
36.18842,124525
36.19467,120877
36.20092,121447
36.20718,126354
36.21343,123863
36.21968,130949
36.22595,126930
36.23220,128174
36.23845,128184
36.24472,129776
36.25097,124799
36.25722,133214
36.26347,139682
36.26973,141318
36.27598,140998
36.28223,154436
36.28850,157135
36.29475,171552
36.30100,180134
36.30727,190424
36.31352,205241
36.31977,213159
36.32603,221804
36.33228,226290
36.33853,238047
36.34480,243411
36.35105,244440
36.35730,249768
36.36357,246696
36.36982,231141
36.37607,221835
36.38233,217377
36.38858,201051
36.39483,193364
36.40110,179214
36.40735,172924
36.41360,166081
36.41987,163790
36.42612,152859
36.43237,146778
36.43863,148810
36.44488,143197
36.45113,144694
36.45740,139440
36.46365,139759
36.46990,143308
36.47617,138072
36.48242,134518
36.48867,136614
36.49492,137212
36.50118,130750
36.50743,134989
36.51368,132040
36.51995,133212
36.52620,132754
36.53245,131881
36.53872,132364
36.54497,130542
36.55122,128727
36.55748,128472
36.56373,129373
36.56998,126198
36.57625,132161
36.58250,130954
36.58875,127592
36.59502,130681
36.60127,124690
36.60752,130060
36.61378,133934
36.62003,131296
36.62628,129659
36.63255,124431
36.63880,135479
36.64505,133514
36.65132,133821
36.65757,131419
36.66382,131147
36.67008,124928
36.67633,129640
36.68258,131316
36.68885,128619
36.69510,130270
36.70135,126455
36.70760,129904
36.71387,126641
36.72012,123490
36.72637,129056
36.73263,125688
36.73888,124977
36.74513,124370
36.75140,126533
36.75765,120140
36.76390,125779
36.77017,120312
36.77642,123095
36.78267,124987
36.78893,126157
36.79518,124550
36.80143,125897
36.80770,123849
36.81395,125256
36.82020,124002
36.82647,125662
36.83272,124164
36.83897,125555
36.84523,129233
36.85148,122538
36.85773,121558
36.86400,127190
36.87025,122140
36.87650,124839
36.88277,122624
36.88902,122330
36.89527,125792
36.90153,118177
36.90778,121255
36.91403,120604
36.92030,119565
36.92655,121174
36.93280,122908
36.93905,124443
36.94532,120611
36.95157,121785
36.95782,123405
36.96408,120022
36.97033,122670
36.97658,119830
36.98285,120587
36.98910,123432
36.99535,121770
37.00162,123559
37.00787,124180
37.01412,122369
37.02038,119729
37.02663,122016
37.03288,127064
37.03915,119838
37.04540,124659
37.05165,123285
37.05792,121051
37.06417,122940
37.07042,122261
37.07668,123539
37.08293,122332
37.08918,121453
37.09545,121039
37.10170,120766
37.10795,122913
37.11422,125896
37.12047,119846
37.12672,123757
37.13298,119998
37.13923,122065
37.14548,124655
37.15173,124468
37.15800,119493
37.16425,119097
37.17050,119132
37.17677,120383
37.18302,120072
37.18927,122692
37.19553,121670
37.20178,119361
37.20803,119537
37.21430,119328
37.22055,118924
37.22680,115186
37.23307,117653
37.23932,118956
37.24557,121216
37.25183,121761
37.25808,125370
37.26433,120750
37.27060,121698
37.27685,119113
37.28310,118603
37.28937,117225
37.29562,118631
37.30187,120536
37.30813,117307
37.31438,115844
37.32063,119612
37.32690,122749
37.33315,118569
37.33940,121014
37.34567,119057
37.35192,121704
37.35817,120415
37.36443,116232
37.37068,120919
37.37693,124285
37.38318,116810
37.38945,117838
37.39570,119563
37.40195,121718
37.40822,118024
37.41447,117169
37.42072,123006
37.42698,119576
37.43323,117215
37.43948,116436
37.44575,120946
37.45200,115910
37.45825,117993
37.46452,121536
37.47077,116836
37.47702,120041
37.48328,119220
37.48953,116995
