D:\MassHunter\GCMS\1\data\metastasis_lineages_3replicates_3runs_10302020\P_plate2_run3_10302020.D Sat Oct 31 12:12:40 2020
Start of data points
5.99360,156458
5.99985,159981
6.00610,170510
6.01235,189271
6.01862,205722
6.02487,220595
6.03112,222349
6.03738,216244
6.04363,185685
6.04988,164567
6.05615,156164
6.06240,162654
6.06865,228857
6.07492,468707
6.08117,836205
6.08742,985653
6.09368,731861
6.09993,402444
6.10618,279588
6.11245,238294
6.11870,259776
6.12495,316862
6.13122,387410
6.13747,548405
6.14372,836470
6.14998,1081517
6.15623,974118
6.16248,606537
6.16875,339965
6.17500,240436
6.18125,221170
6.18752,200586
6.19377,173745
6.20002,168128
6.20628,160402
6.21253,170580
6.21878,171475
6.22503,161255
6.23130,154271
6.23755,153494
6.24380,164769
6.25007,167943
6.25632,169607
6.26257,181748
6.26883,202982
6.27508,276512
6.28133,422734
6.28760,833009
6.29385,2259011
6.30010,6096353
6.30637,1.223802E+07
6.31262,1.757848E+07
6.31887,1.659213E+07
6.32513,8957828
6.33138,2493675
6.33763,574542
6.34390,269099
6.35015,234504
6.35640,236177
6.36267,231003
6.36892,246369
6.37517,293607
6.38143,427314
6.38768,542654
6.39393,586013
6.40020,560490
6.40645,632294
6.41270,873943
6.41897,1069080
6.42522,1190075
6.43147,1817864
6.43773,3872238
6.44398,8534819
6.45023,1.66223E+07
6.45648,2.66705E+07
6.46275,3.64753E+07
6.46900,4.31909E+07
6.47525,4.679762E+07
6.48152,4.772348E+07
6.48777,4.749811E+07
6.49402,4.655007E+07
6.50028,4.518975E+07
6.50653,4.440639E+07
6.51278,4.040443E+07
6.51905,3653732
6.52530,1132892
6.53155,1159728
6.53782,1401042
6.54407,1867113
6.55032,2510919
6.55658,2965939
6.56283,2513743
6.56908,1422742
6.57535,715097
6.58160,438450
6.58785,338927
6.59412,288470
6.60037,273785
6.60662,261891
6.61288,256845
6.61913,267034
6.62538,278454
6.63165,291518
6.63790,311237
6.64415,368700
6.65042,454583
6.65667,460443
6.66292,381534
6.66917,314074
6.67543,280694
6.68168,274589
6.68793,273236
6.69420,275925
6.70045,298544
6.70670,321206
6.71297,332451
6.71922,328312
6.72547,335687
6.73173,351946
6.73798,357926
6.74423,366750
6.75050,361834
6.75675,356573
6.76300,357704
6.76927,366170
6.77552,386198
6.78177,408864
6.78803,445069
6.79428,447378
6.80053,448525
6.80680,440864
6.81305,445495
6.81930,476549
6.82557,531570
6.83182,583197
6.83807,573376
6.84433,509068
6.85058,509013
6.85683,609458
6.86310,789383
6.86935,879973
6.87560,773270
6.88187,608600
6.88812,512123
6.89437,474355
6.90062,449495
6.90688,434168
6.91313,417682
6.91938,421473
6.92565,417613
6.93190,430299
6.93815,422880
6.94442,395469
6.95067,368951
6.95692,348075
6.96318,348738
6.96943,345857
6.97568,338079
6.98195,308764
6.98820,292818
6.99445,289193
7.00072,318978
7.00697,473428
7.01322,1124536
7.01948,2976611
7.02573,6301145
7.03198,9310083
7.03825,9296658
7.04450,5903749
7.05075,2355756
7.05702,708645
7.06327,311781
7.06952,226212
7.07578,196157
7.08203,183254
7.08828,174866
7.09455,179004
7.10080,168534
7.10705,162738
7.11330,167892
7.11957,184372
7.12582,253857
7.13207,389227
7.13833,485011
7.14458,436018
7.15083,281440
7.15710,182501
7.16335,142299
7.16960,142392
7.17587,141877
7.18212,183834
7.18837,263080
7.19463,307961
7.20088,263931
7.20713,191353
7.21340,149398
7.21965,138847
7.22590,162626
7.23217,210707
7.23842,315012
7.24467,497297
7.25093,726201
7.25718,802114
7.26343,641592
7.26970,404942
7.27595,252005
7.28220,176286
7.28847,161624
7.29472,156475
7.30097,142539
7.30723,136196
7.31348,130887
7.31973,125015
7.32600,119840
7.33225,121618
7.33850,117719
7.34475,117450
7.35102,112288
7.35727,117469
7.36352,112161
7.36978,119931
7.37603,142417
7.38228,159296
7.38855,151680
7.39480,146128
7.40105,171543
7.40732,252195
7.41357,341011
7.41982,371432
7.42608,334238
7.43233,263088
7.43858,197318
7.44485,161576
7.45110,154679
7.45735,158795
7.46362,172080
7.46987,187626
7.47612,196345
7.48238,213278
7.48863,250719
7.49488,317685
7.50115,321267
7.50740,247977
7.51365,165717
7.51992,128770
7.52617,116260
7.53242,143064
7.53868,309905
7.54493,1145680
7.55118,4166578
7.55743,1.057899E+07
7.56370,1.927627E+07
7.56995,2.681415E+07
7.57620,2.952596E+07
7.58247,2.264649E+07
7.58872,9282756
7.59497,3418371
7.60123,2723244
7.60748,2485643
7.61373,1802456
7.62000,1124085
7.62625,702444
7.63250,454047
7.63877,306679
7.64502,232030
7.65127,209005
7.65753,216608
7.66378,284915
7.67003,401084
7.67630,505276
7.68255,459091
7.68880,324792
7.69507,235545
7.70132,231873
7.70757,304238
7.71383,382329
7.72008,376914
7.72633,324062
7.73260,254425
7.73885,207143
7.74510,180708
7.75137,166464
7.75762,147096
7.76387,147107
7.77012,163304
7.77638,174855
7.78263,169008
7.78888,158563
7.79515,158402
7.80140,152128
7.80765,171116
7.81392,231120
7.82017,328591
7.82642,401563
7.83268,369045
7.83893,290605
7.84518,244470
7.85145,256123
7.85770,292888
7.86395,290755
7.87022,257372
7.87647,224287
7.88272,197235
7.88898,191020
7.89523,190940
7.90148,195235
7.90775,202039
7.91400,199201
7.92025,198746
7.92652,186218
7.93277,189521
7.93902,229637
7.94528,298331
7.95153,376700
7.95778,356705
7.96405,297389
7.97030,273427
7.97655,315301
7.98282,474503
7.98907,754576
7.99532,1021046
8.00157,1270014
8.00783,1721023
8.01408,2307651
8.02033,2286422
8.02660,1686946
8.03285,1012105
8.03910,744660
8.04537,808584
8.05162,963203
8.05787,932461
8.06413,689188
8.07038,458060
8.07663,386464
8.08290,479412
8.08915,650108
8.09540,811129
8.10167,941710
8.10792,1161840
8.11417,1370002
8.12043,1189742
8.12668,711031
8.13293,376318
8.13920,245981
8.14545,202790
8.15170,186862
8.15797,176037
8.16422,171530
8.17047,182800
8.17673,180827
8.18298,186283
8.18923,171303
8.19550,155745
8.20175,148762
8.20800,147212
8.21425,163960
8.22052,232214
8.22677,362602
8.23302,471622
8.23928,466876
8.24553,352930
8.25178,271571
8.25805,227160
8.26430,206377
8.27055,197427
8.27682,224368
8.28307,241895
8.28932,246872
8.29558,216676
8.30183,162739
8.30808,132890
8.31435,120458
8.32060,126444
8.32685,136361
8.33312,148279
8.33937,149458
8.34562,139979
8.35188,139436
8.35813,149877
8.36438,150815
8.37065,145134
8.37690,132587
8.38315,136165
8.38942,170077
8.39567,277671
8.40192,487430
8.40818,643080
8.41443,576278
8.42068,379988
8.42693,225297
8.43320,188785
8.43945,234558
8.44570,294417
8.45197,331537
8.45822,307298
8.46447,249867
8.47073,189676
8.47698,169689
8.48323,153638
8.48950,152349
8.49575,165589
8.50200,182953
8.50827,194449
8.51452,173138
8.52077,149836
8.52703,128092
8.53328,121936
8.53953,118665
8.54580,127634
8.55205,148432
8.55830,229619
8.56457,389827
8.57082,627928
8.57707,985757
8.58333,1518774
8.58958,1906040
8.59583,1891260
8.60210,1850776
8.60835,3394876
8.61460,8089307
8.62087,1.505333E+07
8.62712,1.884816E+07
8.63337,1.623351E+07
8.63963,8506414
8.64588,2559180
8.65213,648577
8.65838,297349
8.66465,257349
8.67090,239981
8.67715,231180
8.68342,225071
8.68967,232168
8.69592,228052
8.70218,230532
8.70843,233394
8.71468,236584
8.72095,220867
8.72720,199098
8.73345,188197
8.73972,203358
8.74597,212135
8.75222,199422
8.75848,164828
8.76473,133011
8.77098,123403
8.77725,122716
8.78350,126434
8.78975,120421
8.79602,109806
8.80227,103378
8.80852,104072
8.81478,101416
8.82103,118441
8.82728,197704
8.83355,500552
8.83980,1335399
8.84605,2904182
8.85232,4853198
8.85857,5953334
8.86482,5591875
8.87107,4665080
8.87733,4561154
8.88358,5283942
8.88983,6132892
8.89610,5701387
8.90235,3455225
8.90860,1430470
8.91487,599037
8.92112,327775
8.92737,229433
8.93363,183558
8.93988,166231
8.94613,169680
8.95240,213873
8.95865,257871
8.96490,293261
8.97117,320667
8.97742,329750
8.98367,373773
8.98993,463306
8.99618,636656
9.00243,852429
9.00870,999335
9.01495,877498
9.02120,629926
9.02747,493980
9.03372,676379
9.03997,1110368
9.04623,1463205
9.05248,1274217
9.05873,760425
9.06500,395578
9.07125,247552
9.07750,202385
9.08377,197697
9.09002,209072
9.09627,220107
9.10252,212613
9.10878,189429
9.11503,165948
9.12128,150356
9.12755,145080
9.13380,169101
9.14005,192688
9.14632,204678
9.15257,226704
9.15882,270836
9.16508,308246
9.17133,316258
9.17758,329360
9.18385,379784
9.19010,466752
9.19635,492766
9.20262,405220
9.20887,304405
9.21512,227650
9.22138,185349
9.22763,167790
9.23388,184018
9.24015,240858
9.24640,283912
9.25265,285173
9.25892,232652
9.26517,173137
9.27142,134055
9.27768,121027
9.28393,137349
9.29018,181084
9.29645,272125
9.30270,381684
9.30895,452827
9.31520,529275
9.32147,571345
9.32772,549895
9.33397,532660
9.34023,713245
9.34648,1061430
9.35273,1319012
9.35900,1159239
9.36525,757518
9.37150,586754
9.37777,1389724
9.38402,4472640
9.39027,1.046803E+07
9.39653,1.603005E+07
9.40278,1.778047E+07
9.40903,1.309129E+07
9.41530,5667254
9.42155,1692861
9.42780,1003680
9.43407,2569589
9.44032,7987015
9.44657,1.813731E+07
9.45283,2.999511E+07
9.45908,3.570386E+07
9.46533,3.235787E+07
9.47160,1.990335E+07
9.47785,6972410
9.48410,1781913
9.49037,600950
9.49662,336397
9.50287,249001
9.50913,218404
9.51538,221275
9.52163,221387
9.52790,227503
9.53415,219997
9.54040,220071
9.54665,206704
9.55292,199606
9.55917,193812
9.56542,205835
9.57168,231789
9.57793,249501
9.58418,240113
9.59045,220832
9.59670,204955
9.60295,211006
9.60922,233447
9.61547,260091
9.62172,262369
9.62798,220630
9.63423,178688
9.64048,162132
9.64675,163631
9.65300,168742
9.65925,166858
9.66552,155938
9.67177,209738
9.67802,603186
9.68428,2259488
9.69053,6505589
9.69678,1.292309E+07
9.70305,1.733237E+07
9.70930,1.551466E+07
9.71555,8615652
9.72182,3685702
9.72807,3320799
9.73432,5331662
9.74058,6618214
9.74683,5620927
9.75308,3099600
9.75933,1228829
9.76560,462164
9.77185,264639
9.77810,209718
9.78437,186826
9.79062,164465
9.79687,149817
9.80313,149617
9.80938,139354
9.81563,144613
9.82190,141265
9.82815,143607
9.83440,155921
9.84067,183332
9.84692,257865
9.85317,651881
9.85943,2308933
9.86568,6584524
9.87193,1.244449E+07
9.87820,1.649794E+07
9.88445,1.561852E+07
9.89070,9354001
9.89697,3793201
9.90322,1898952
9.90947,2022341
9.91573,2086660
9.92198,1482482
9.92823,718901
9.93450,338646
9.94075,214257
9.94700,204645
9.95327,234238
9.95952,365477
9.96577,632397
9.97203,1001044
9.97828,1412508
9.98453,1882168
9.99078,2464383
9.99705,2729645
10.00330,2265525
10.00955,1374472
10.01582,688270
10.02207,398016
10.02832,287360
10.03458,232485
10.04083,201164
10.04708,200944
10.05335,202838
10.05960,179271
10.06585,163681
10.07212,146985
10.07837,143905
10.08462,156744
10.09088,176644
10.09713,205095
10.10338,221492
10.10965,230071
10.11590,236856
10.12215,227408
10.12842,199949
10.13467,164406
10.14092,142731
10.14718,142263
10.15343,139197
10.15968,136158
10.16595,139970
10.17220,158599
10.17845,183589
10.18472,207817
10.19097,218482
10.19722,209326
10.20347,179489
10.20973,174643
10.21598,246613
10.22223,439967
10.22850,782112
10.23475,1141615
10.24100,1314877
10.24727,1195500
10.25352,892317
10.25977,568742
10.26603,370638
10.27228,274085
10.27853,239898
10.28480,266240
10.29105,359781
10.29730,433978
10.30357,413350
10.30982,311254
10.31607,241715
10.32233,237359
10.32858,318070
10.33483,490130
10.34110,618203
10.34735,588147
10.35360,391971
10.35987,247397
10.36612,195680
10.37237,186516
10.37863,168945
10.38488,153910
10.39113,140781
10.39740,135080
10.40365,124692
10.40990,116982
10.41615,120651
10.42242,131082
10.42867,146433
10.43492,155045
10.44118,158410
10.44743,158046
10.45368,169727
10.45995,171061
10.46620,169413
10.47245,198801
10.47872,306128
10.48497,484191
10.49122,598389
10.49748,554831
10.50373,379744
10.50998,231905
10.51625,167283
10.52250,146413
10.52875,178110
10.53502,238633
10.54127,288164
10.54752,290979
10.55378,245757
10.56003,210135
10.56628,196516
10.57255,205728
10.57880,236050
10.58505,257629
10.59132,254040
10.59757,272006
10.60382,544559
10.61008,1775451
10.61633,5203311
10.62258,1.033428E+07
10.62885,1.408583E+07
10.63510,1.289192E+07
10.64135,7248361
10.64760,2637245
10.65387,719354
10.66012,271545
10.66637,202742
10.67263,202145
10.67888,219760
10.68513,213569
10.69140,191129
10.69765,167655
10.70390,149371
10.71017,149188
10.71642,162631
10.72267,171163
10.72893,180503
10.73518,188915
10.74143,184080
10.74770,178516
10.75395,170622
10.76020,170718
10.76647,186099
10.77272,195747
10.77897,203870
10.78523,200647
10.79148,192808
10.79773,182683
10.80400,195968
10.81025,258594
10.81650,387205
10.82277,468520
10.82902,427501
10.83527,303828
10.84153,211934
10.84778,174546
10.85403,172850
10.86028,187132
10.86655,188619
10.87280,196705
10.87905,188226
10.88532,184571
10.89157,186866
10.89782,193157
10.90408,205655
10.91033,209716
10.91658,198001
10.92285,195221
10.92910,203356
10.93535,211722
10.94162,190765
10.94787,161426
10.95412,158595
10.96038,210156
10.96663,545898
10.97288,1895083
10.97915,5477212
10.98540,1.228526E+07
10.99165,2.017998E+07
10.99792,2.336172E+07
11.00417,1.896897E+07
11.01042,9366964
11.01668,2780684
11.02293,659016
11.02918,282132
11.03545,273762
11.04170,299084
11.04795,306179
11.05422,329879
11.06047,368746
11.06672,364749
11.07297,306450
11.07923,233145
11.08548,179736
11.09173,174595
11.09800,194425
11.10425,216107
11.11050,218480
11.11677,212464
11.12302,218885
11.12927,224152
11.13553,232605
11.14178,240779
11.14803,248512
11.15430,297363
11.16055,427326
11.16680,610222
11.17307,713314
11.17932,617091
11.18557,418176
11.19183,261306
11.19808,199824
11.20433,205232
11.21060,244878
11.21685,298041
11.22310,314419
11.22937,292739
11.23562,258551
11.24187,233324
11.24813,249458
11.25438,279200
11.26063,282228
11.26690,260010
11.27315,250425
11.27940,266809
11.28567,282769
11.29192,264075
11.29817,236008
11.30442,202175
11.31068,203615
11.31693,272278
11.32318,441980
11.32945,683182
11.33570,793056
11.34195,657922
11.34822,396306
11.35447,227856
11.36072,165293
11.36698,160683
11.37323,166741
11.37948,156686
11.38575,151837
11.39200,149457
11.39825,153605
11.40452,162605
11.41077,162253
11.41702,166620
11.42328,162602
11.42953,168466
11.43578,226678
11.44205,387144
11.44830,634202
11.45455,839744
11.46082,830565
11.46707,603652
11.47332,382130
11.47958,287453
11.48583,273888
11.49208,256263
11.49835,220276
11.50460,195468
11.51085,179533
11.51710,171286
11.52337,165153
11.52962,165874
11.53587,165936
11.54213,172335
11.54838,171087
11.55463,163660
11.56090,153063
11.56715,142660
11.57340,141838
11.57967,144010
11.58592,146393
11.59217,153548
11.59843,166780
11.60468,164029
11.61093,161535
11.61720,152055
11.62345,151006
11.62970,150470
11.63597,157578
11.64222,160923
11.64847,177327
11.65473,200615
11.66098,214031
11.66723,209859
11.67350,190131
11.67975,171454
11.68600,161903
11.69227,161721
11.69852,187354
11.70477,252189
11.71103,384212
11.71728,551528
11.72353,616084
11.72978,544004
11.73605,379794
11.74230,288817
11.74855,235996
11.75482,214055
11.76107,212793
11.76732,232825
11.77358,255103
11.77983,261106
11.78608,262645
11.79235,269182
11.79860,268792
11.80485,262906
11.81112,254439
11.81737,232201
11.82362,233177
11.82988,307377
11.83613,470611
11.84238,610930
11.84865,619795
11.85490,492599
11.86115,344715
11.86742,247798
11.87367,223364
11.87992,246280
11.88618,326379
11.89243,439437
11.89868,510095
11.90495,472445
11.91120,402913
11.91745,310734
11.92372,252827
11.92997,232729
11.93622,268756
11.94248,418654
11.94873,939012
11.95498,2277488
11.96123,4481010
11.96750,6554588
11.97375,6632328
11.98000,4387516
11.98627,2016380
11.99252,830722
11.99877,589949
12.00503,631452
12.01128,655848
12.01753,583368
12.02380,488646
12.03005,473973
12.03630,611169
12.04257,929471
12.04882,1408576
12.05507,1801626
12.06133,1738840
12.06758,1360331
12.07383,877616
12.08010,595774
12.08635,505326
12.09260,495714
12.09887,469550
12.10512,434226
12.11137,374034
12.11763,304320
12.12388,258499
12.13013,246768
12.13640,236647
12.14265,235585
12.14890,223443
12.15517,212074
12.16142,205070
12.16767,204932
12.17392,203271
12.18018,222074
12.18643,259283
12.19268,340800
12.19895,456390
12.20520,629605
12.21145,956536
12.21772,1437554
12.22397,1784967
12.23022,1743292
12.23648,1305455
12.24273,833805
12.24898,690670
12.25525,949156
12.26150,1661504
12.26775,2687916
12.27402,3721406
12.28027,3939784
12.28652,3062036
12.29278,1648457
12.29903,716668
12.30528,355149
12.31155,240599
12.31780,210078
12.32405,194902
12.33032,187599
12.33657,211669
12.34282,250642
12.34908,299476
12.35533,344078
12.36158,363342
12.36785,342172
12.37410,313852
12.38035,323759
12.38662,397194
12.39287,472885
12.39912,456259
12.40537,372418
12.41163,297439
12.41788,260699
12.42413,256464
12.43040,290863
12.43665,338824
12.44290,367272
12.44917,351310
12.45542,317763
12.46167,290224
12.46793,293615
12.47418,357666
12.48043,535722
12.48670,824660
12.49295,1152308
12.49920,1277804
12.50547,1069026
12.51172,673235
12.51797,395473
12.52423,268916
12.53048,259162
12.53673,323195
12.54300,435375
12.54925,504898
12.55550,456812
12.56177,370950
12.56802,338772
12.57427,533802
12.58053,1100003
12.58678,1996331
12.59303,2865630
12.59930,2982157
12.60555,2394123
12.61180,2057398
12.61807,2505637
12.62432,3399233
12.63057,4512643
12.63682,6034303
12.64308,8281011
12.64933,1.214806E+07
12.65558,1.788572E+07
12.66185,2.527771E+07
12.66810,3.165396E+07
12.67435,3.498264E+07
12.68062,3.418092E+07
12.68687,2.905163E+07
12.69312,1.457106E+07
12.69938,3460684
12.70563,917722
12.71188,731007
12.71815,925248
12.72440,1076842
12.73065,1090289
12.73692,1097353
12.74317,1153165
12.74942,1150396
12.75568,985019
12.76193,752799
12.76818,579054
12.77445,461042
12.78070,422793
12.78695,423986
12.79322,449309
12.79947,444859
12.80572,408405
12.81198,363231
12.81823,359633
12.82448,414559
12.83075,490843
12.83700,510234
12.84325,449006
12.84950,390268
12.85577,353724
12.86202,336938
12.86827,337770
12.87453,343482
12.88078,389018
12.88703,540824
12.89330,826466
12.89955,1093034
12.90580,1134032
12.91207,1016113
12.91832,845410
12.92457,658451
12.93083,479034
12.93708,347929
12.94333,283235
12.94960,259209
12.95585,259503
12.96210,248461
12.96837,241415
12.97462,231321
12.98087,237374
12.98713,246979
12.99338,275324
12.99963,301237
13.00590,335802
13.01215,361759
13.01840,400389
13.02467,506062
13.03092,742486
13.03717,985000
13.04343,996829
13.04968,757839
13.05593,488777
13.06218,390140
13.06845,585714
13.07470,1266544
13.08095,2525839
13.08722,3959728
13.09347,4271981
13.09972,3169254
13.10598,1743632
13.11223,947937
13.11848,608922
13.12475,451977
13.13100,377263
13.13725,348440
13.14352,348169
13.14977,338174
13.15602,318711
13.16228,310718
13.16853,291004
13.17478,274918
13.18105,253547
13.18730,237282
13.19355,229271
13.19982,222170
13.20607,222026
13.21232,228665
13.21858,236258
13.22483,264615
13.23108,300982
13.23735,335820
13.24360,356265
13.24985,345071
13.25612,339095
13.26237,365314
13.26862,379979
13.27488,365616
13.28113,344658
13.28738,371007
13.29363,512951
13.29990,854322
13.30615,1394181
13.31240,1957186
13.31867,1915012
13.32492,1359079
13.33117,731273
13.33743,399661
13.34368,314206
13.34993,323795
13.35620,324617
13.36245,317987
13.36870,298073
13.37497,282976
13.38122,270011
13.38747,257475
13.39373,254172
13.39998,238395
13.40623,237153
13.41250,242188
13.41875,253735
13.42500,285513
13.43127,328851
13.43752,385368
13.44377,411111
13.45003,389853
13.45628,349948
13.46253,307232
13.46880,279145
13.47505,270178
13.48130,274430
13.48757,276026
13.49382,276891
13.50007,276602
13.50632,282977
13.51258,287853
13.51883,307020
13.52508,320731
13.53135,340252
13.53760,368918
13.54385,456760
13.55012,673779
13.55637,959886
13.56262,1048597
13.56888,881081
13.57513,641484
13.58138,524342
13.58765,595140
13.59390,940366
13.60015,1523946
13.60642,2031766
13.61267,1988117
13.61892,1466021
13.62518,944872
13.63143,637825
13.63768,500809
13.64395,434492
13.65020,416646
13.65645,425042
13.66272,416750
13.66897,386292
13.67522,372423
13.68148,406743
13.68773,489432
13.69398,571435
13.70025,598767
13.70650,526936
13.71275,434092
13.71900,368257
13.72527,341905
13.73152,332996
13.73777,336955
13.74403,350263
13.75028,410913
13.75653,569745
13.76280,853916
13.76905,1176955
13.77530,1170477
13.78157,912326
13.78782,594563
13.79407,488438
13.80033,617736
13.80658,1215756
13.81283,2686349
13.81910,5620555
13.82535,1.115222E+07
13.83160,1.80504E+07
13.83787,2.496906E+07
13.84412,2.728046E+07
13.85037,2.228572E+07
13.85663,9745021
13.86288,2324909
13.86913,584193
13.87540,331606
13.88165,352552
13.88790,574136
13.89417,1242664
13.90042,2957180
13.90667,5909498
13.91293,9689741
13.91918,1.201783E+07
13.92543,1.065637E+07
13.93170,6179474
13.93795,2251741
13.94420,683634
13.95045,289144
13.95672,226430
13.96297,223797
13.96922,222216
13.97548,220769
13.98173,236349
13.98798,257933
13.99425,268479
14.00050,281020
14.00675,305527
14.01302,354154
14.01927,353215
14.02552,312270
14.03178,249641
14.03803,203825
14.04428,185970
14.05055,190022
14.05680,203579
14.06305,230285
14.06932,262115
14.07557,283849
14.08182,282779
14.08808,251037
14.09433,209788
14.10058,186599
14.10685,178384
14.11310,172506
14.11935,182243
14.12562,192297
14.13187,195043
14.13812,188025
14.14438,175981
14.15063,171767
14.15688,177724
14.16313,184311
14.16940,180006
14.17565,172159
14.18190,163810
14.18817,166936
14.19442,177762
14.20067,192248
14.20693,250337
14.21318,386541
14.21943,646686
14.22570,981463
14.23195,1222284
14.23820,1142938
14.24447,819421
14.25072,513225
14.25697,368545
14.26323,514369
14.26948,1007741
14.27573,1703945
14.28200,2086251
14.28825,1667689
14.29450,947652
14.30077,519559
14.30702,354869
14.31327,341330
14.31953,436676
14.32578,583152
14.33203,651316
14.33830,564185
14.34455,444467
14.35080,318032
14.35707,252366
14.36332,235641
14.36957,229407
14.37582,226291
14.38208,240746
14.38833,261107
14.39458,317783
14.40085,484522
14.40710,1062521
14.41335,2466790
14.41962,4742613
14.42587,6714086
14.43212,6742263
14.43838,5070126
14.44463,3430835
14.45088,2412598
14.45715,1742935
14.46340,1339605
14.46965,1226251
14.47592,1271701
14.48217,1386576
14.48842,1263120
14.49468,968785
14.50093,608631
14.50718,406364
14.51345,327317
14.51970,328411
14.52595,356024
14.53222,361739
14.53847,332947
14.54472,289583
14.55098,267569
14.55723,259010
14.56348,257949
14.56975,263357
14.57600,277109
14.58225,255641
14.58852,240802
14.59477,228139
14.60102,226800
14.60727,241586
14.61353,245710
14.61978,251004
14.62603,256590
14.63230,279469
14.63855,363441
14.64480,508176
14.65107,625871
14.65732,627073
14.66357,518810
14.66983,403811
14.67608,334410
14.68233,329537
14.68860,384072
14.69485,501017
14.70110,648306
14.70737,726654
14.71362,666943
14.71987,631539
14.72613,824734
14.73238,1365874
14.73863,1984626
14.74490,2356816
14.75115,2570905
14.75740,2840173
14.76367,3031604
14.76992,2567603
14.77617,1673296
14.78243,794865
14.78868,398400
14.79493,320279
14.80120,440253
14.80745,671373
14.81370,852036
14.81995,822779
14.82622,599526
14.83247,380219
14.83872,265780
14.84498,230168
14.85123,248991
14.85748,335804
14.86375,447149
14.87000,533112
14.87625,494087
14.88252,403016
14.88877,308292
14.89502,261767
14.90128,277690
14.90753,392201
14.91378,637861
14.92005,925286
14.92630,1053344
14.93255,981797
14.93882,780432
14.94507,588998
14.95132,483381
14.95758,601852
14.96383,1169447
14.97008,2501356
14.97635,4644637
14.98260,6669290
14.98885,6311364
14.99512,4156267
15.00137,1801818
15.00762,722331
15.01388,387619
15.02013,307106
15.02638,285499
15.03265,291022
15.03890,320041
15.04515,365343
15.05140,387635
15.05767,389365
15.06392,385809
15.07017,365997
15.07643,342760
15.08268,336757
15.08893,355995
15.09520,393877
15.10145,448455
15.10770,474114
15.11397,533175
15.12022,622184
15.12647,741815
15.13273,880039
15.13898,1037950
15.14523,1179971
15.15150,1321986
15.15775,1702189
15.16400,2813606
15.17027,4930741
15.17652,6667657
15.18277,6688741
15.18903,4347902
15.19528,2102280
15.20153,926535
15.20780,522580
15.21405,371375
15.22030,289710
15.22657,253430
15.23282,248520
15.23907,245454
15.24533,251414
15.25158,276953
15.25783,296780
15.26408,301178
15.27035,293062
15.27660,265283
15.28285,239917
15.28912,221818
15.29537,224311
15.30162,231880
15.30788,236672
15.31413,269842
15.32038,324765
15.32665,375994
15.33290,378447
15.33915,332364
15.34542,280084
15.35167,250448
15.35792,262449
15.36418,272207
15.37043,280917
15.37668,267371
15.38295,256074
15.38920,244644
15.39545,232674
15.40172,217133
15.40797,208438
15.41422,212250
15.42048,258156
15.42673,365385
15.43298,503068
15.43925,631417
15.44550,788174
15.45175,950476
15.45802,1031745
15.46427,903839
15.47052,640199
15.47678,417750
15.48303,294906
15.48928,249714
15.49553,244759
15.50180,272001
15.50805,322900
15.51430,498533
15.52057,1024824
15.52682,2270137
15.53307,4150763
15.53933,6286534
15.54558,9493409
15.55183,1.351296E+07
15.55810,1.674133E+07
15.56435,1.558356E+07
15.57060,8830398
15.57687,2940570
15.58312,908869
15.58937,501680
15.59563,444334
15.60188,443068
15.60813,460920
15.61440,482608
15.62065,469136
15.62690,443739
15.63317,415725
15.63942,409123
15.64567,377779
15.65193,312398
15.65818,273260
15.66443,266272
15.67070,275710
15.67695,297217
15.68320,309175
15.68947,312338
15.69572,311254
15.70197,299428
15.70822,287637
15.71448,259402
15.72073,236593
15.72698,231425
15.73325,237569
15.73950,263282
15.74575,270618
15.75202,281045
15.75827,269304
15.76452,240385
15.77078,213439
15.77703,189346
15.78328,187173
15.78955,187551
15.79580,200697
15.80205,210560
15.80832,212777
15.81457,212579
15.82082,224277
15.82708,237799
15.83333,314982
15.83958,476304
15.84585,706752
15.85210,792414
15.85835,684448
15.86462,470156
15.87087,319161
15.87712,250902
15.88338,239240
15.88963,240102
15.89588,240376
15.90215,226911
15.90840,208316
15.91465,196867
15.92090,191079
15.92717,194702
15.93342,191013
15.93967,198211
15.94593,217174
15.95218,295211
15.95843,445569
15.96470,656580
15.97095,766987
15.97720,661807
15.98347,452849
15.98972,279430
15.99597,201109
16.00223,197011
16.00848,253074
16.01473,374770
16.02100,547542
16.02725,707519
16.03350,775902
16.03977,865532
16.04602,1006522
16.05227,1198720
16.05853,1192072
16.06478,952119
16.07103,751985
16.07730,832859
16.08355,1112822
16.08980,1354433
16.09607,1326155
16.10232,1130084
16.10857,1130531
16.11483,1678041
16.12108,2961703
16.12733,4160575
16.13360,4308903
16.13985,3151650
16.14610,1611670
16.15235,701962
16.15862,393155
16.16487,328659
16.17112,322031
16.17738,315933
16.18363,309389
16.18988,362935
16.19615,430898
16.20240,479621
16.20865,400291
16.21492,318559
16.22117,321741
16.22742,483813
16.23368,790673
16.23993,1071054
16.24618,1016190
16.25245,743765
16.25870,444884
16.26495,318421
16.27122,264803
16.27747,236099
16.28372,225162
16.28998,230982
16.29623,291743
16.30248,425063
16.30875,556729
16.31500,585313
16.32125,497261
16.32752,367155
16.33377,275042
16.34002,242380
16.34628,234336
16.35253,229855
16.35878,227229
16.36503,217359
16.37130,217088
16.37755,214629
16.38380,213641
16.39007,207291
16.39632,205356
16.40257,215354
16.40883,216030
16.41508,222010
16.42133,225066
16.42760,262843
16.43385,360111
16.44010,595071
16.44637,889145
16.45262,1099394
16.45887,931869
16.46513,774660
16.47138,629186
16.47763,543636
16.48390,435613
16.49015,374346
16.49640,331240
16.50267,328636
16.50892,372537
16.51517,446889
16.52143,541063
16.52768,614257
16.53393,608225
16.54020,544516
16.54645,467823
16.55270,417909
16.55897,385912
16.56522,347808
16.57147,322285
16.57773,309960
16.58398,313716
16.59023,319915
16.59648,327669
16.60275,317297
16.60900,326805
16.61525,333409
16.62152,352800
16.62777,371185
16.63402,397845
16.64028,437361
16.64653,474623
16.65278,496925
16.65905,468861
16.66530,419448
16.67155,387864
16.67782,401201
16.68407,425684
16.69032,422606
16.69658,407511
16.70283,366574
16.70908,334030
16.71535,297080
16.72160,291303
16.72785,305481
16.73412,304966
16.74037,311713
16.74662,330992
16.75288,358284
16.75913,467279
16.76538,775644
16.77165,1378481
16.77790,2301672
16.78415,2877850
16.79042,2944082
16.79667,2916405
16.80292,3209657
16.80917,4003080
16.81543,5063550
16.82168,6515156
16.82793,9200940
16.83420,1.288859E+07
16.84045,1.616604E+07
16.84670,1.552891E+07
16.85297,1.193623E+07
16.85922,7416306
16.86547,4287334
16.87173,3202740
16.87798,3207359
16.88423,3613694
16.89050,3826252
16.89675,3620871
16.90300,3184001
16.90927,2516044
16.91552,2340058
16.92177,2598769
16.92803,3216211
16.93428,3872494
16.94053,3734533
16.94680,3553307
16.95305,3470692
16.95930,3382821
16.96557,3113027
16.97182,2392182
16.97807,1745212
16.98433,1225164
16.99058,1009311
16.99683,914389
17.00310,994503
17.00935,1326492
17.01560,2405579
17.02185,4736964
17.02812,8809225
17.03437,1.456798E+07
17.04062,2.274008E+07
17.04688,3.302764E+07
17.05313,4.354623E+07
17.05938,5.086651E+07
17.06565,5.273156E+07
17.07190,5.043866E+07
17.07815,4.663142E+07
17.08442,4.372341E+07
17.09067,4.140434E+07
17.09692,4.105617E+07
17.10318,4.698304E+07
17.10943,3.349339E+07
17.11568,1.138573E+07
17.12195,1.107283E+07
17.12820,1.039624E+07
17.13445,8508427
17.14072,5983222
17.14697,6064571
17.15322,1.081129E+07
17.15948,2.07042E+07
17.16573,3.283498E+07
17.17198,4.376105E+07
17.17825,4.976596E+07
17.18450,4.972859E+07
17.19075,3.753274E+07
17.19702,1.449102E+07
17.20327,3865786
17.20952,2770523
17.21578,3221256
17.22203,3812821
17.22828,5684041
17.23453,1.057257E+07
17.24080,2.075363E+07
17.24705,3.384036E+07
17.25330,4.377811E+07
17.25957,4.868532E+07
17.26582,4.44397E+07
17.27207,2.719836E+07
17.27833,1.078584E+07
17.28458,7780717
17.29083,1.189648E+07
17.29710,1.679888E+07
17.30335,1.84137E+07
17.30960,1.508464E+07
17.31587,8914567
17.32212,4126213
17.32837,1997347
17.33463,1339355
17.34088,1101522
17.34713,932663
17.35340,843250
17.35965,779256
17.36590,733494
17.37217,742431
17.37842,746355
17.38467,765680
17.39093,799060
17.39718,879682
17.40343,1051175
17.40970,1299651
17.41595,1381547
17.42220,1292542
17.42847,1163213
17.43472,1206956
17.44097,1627258
17.44723,2708123
17.45348,4109282
17.45973,4570139
17.46598,3862845
17.47225,2626043
17.47850,1492237
17.48475,922343
17.49102,780745
17.49727,769440
17.50352,849031
17.50978,1093796
17.51603,1475798
17.52228,1771573
17.52855,1648020
17.53480,1278832
17.54105,929326
17.54732,765231
17.55357,849169
17.55982,1291965
17.56608,2690144
17.57233,5638954
17.57858,1.039458E+07
17.58485,1.373906E+07
17.59110,1.245182E+07
17.59735,7923382
17.60362,3787878
17.60987,1695176
17.61612,1265558
17.62238,1405387
17.62863,1482093
17.63488,1305061
17.64115,998186
17.64740,756496
17.65365,647627
17.65992,582252
17.66617,562005
17.67242,538387
17.67867,534553
17.68493,570788
17.69118,604065
17.69743,652657
17.70370,689723
17.70995,694632
17.71620,610546
17.72247,550150
17.72872,505895
17.73497,506951
17.74123,533514
17.74748,576829
17.75373,588529
17.76000,607609
17.76625,670815
17.77250,815513
17.77877,995514
17.78502,1213128
17.79127,1642856
17.79753,2510775
17.80378,4075285
17.81003,5518296
17.81630,6398059
17.82255,6055263
17.82880,4130991
17.83507,2528166
17.84132,1622649
17.84757,1122303
17.85383,1175253
17.86008,2355708
17.86633,5667344
17.87260,1.125408E+07
17.87885,1.690261E+07
17.88510,1.835434E+07
17.89137,1.345876E+07
17.89762,6319142
17.90387,2263789
17.91012,1026087
17.91638,736186
17.92263,665913
17.92888,626925
17.93515,564021
17.94140,530122
17.94765,516289
17.95392,513810
17.96017,534251
17.96642,553336
17.97268,557311
17.97893,536957
17.98518,552235
17.99145,640186
17.99770,740052
18.00395,899765
18.01022,1061749
18.01647,1116930
18.02272,990760
18.02898,771588
18.03523,591533
18.04148,505612
18.04775,447147
18.05400,404709
18.06025,366730
18.06652,336634
18.07277,326153
18.07902,342837
18.08528,364798
18.09153,420807
18.09778,464190
18.10405,489630
18.11030,464363
18.11655,467167
18.12280,630157
18.12907,1107712
18.13532,2043058
18.14157,3183263
18.14783,3764356
18.15408,3380452
18.16033,1969686
18.16660,995301
18.17285,558728
18.17910,431717
18.18537,385626
18.19162,356477
18.19787,339297
18.20413,352103
18.21038,413831
18.21663,508388
18.22290,547008
18.22915,493307
18.23540,413740
18.24167,346619
18.24792,317894
18.25417,317039
18.26043,326593
18.26668,365508
18.27293,411447
18.27920,480917
18.28545,572915
18.29170,804247
18.29797,1245308
18.30422,1682062
18.31047,1831476
18.31673,1751504
18.32298,1387787
18.32923,940652
18.33550,590241
18.34175,382472
18.34800,301890
18.35425,293246
18.36052,304843
18.36677,301831
18.37302,305623
18.37928,337551
18.38553,401675
18.39178,458538
18.39805,465187
18.40430,449852
18.41055,479822
18.41682,469042
18.42307,451058
18.42932,379191
18.43558,315872
18.44183,274078
18.44808,254291
18.45435,246537
18.46060,239510
18.46685,251276
18.47312,257003
18.47937,251797
18.48562,239747
18.49188,225769
18.49813,221233
18.50438,226857
18.51065,229582
18.51690,228673
18.52315,225598
18.52942,222450
18.53567,222693
18.54192,235647
18.54818,251535
18.55443,261297
18.56068,271299
18.56693,268124
18.57320,252587
18.57945,234595
18.58570,228475
18.59197,245253
18.59822,296210
18.60447,419172
18.61073,603024
18.61698,765061
18.62323,715601
18.62950,540382
18.63575,395832
18.64200,360829
18.64827,357698
18.65452,343346
18.66077,309065
18.66703,287479
18.67328,281602
18.67953,269322
18.68580,249518
18.69205,235806
18.69830,241831
18.70457,275443
18.71082,321101
18.71707,352086
18.72333,346157
18.72958,313970
18.73583,270143
18.74210,243025
18.74835,236163
18.75460,244632
18.76087,251373
18.76712,238320
18.77337,223583
18.77963,208779
18.78588,201116
18.79213,197725
18.79838,198950
18.80465,201803
18.81090,208015
18.81715,222163
18.82342,221600
18.82967,220302
18.83592,220719
18.84218,209353
18.84843,200190
18.85468,208402
18.86095,281839
18.86720,529608
18.87345,1417541
18.87972,4318154
18.88597,1.085078E+07
18.89222,2.180953E+07
18.89848,3.478323E+07
18.90473,4.677312E+07
18.91098,4.980376E+07
18.91725,4.438392E+07
18.92350,2.771367E+07
18.92975,9008832
18.93602,2064500
18.94227,883378
18.94852,650809
18.95478,513367
18.96103,378700
18.96728,282989
18.97355,237648
18.97980,219809
18.98605,205496
18.99232,212782
18.99857,221358
19.00482,230879
19.01107,238936
19.01733,241250
19.02358,240079
19.02983,227974
19.03610,232945
19.04235,238442
19.04860,254564
19.05487,260919
19.06112,252020
19.06737,236244
19.07363,238126
19.07988,266531
19.08613,297986
19.09240,332749
19.09865,331294
19.10490,317703
19.11117,294481
19.11742,266105
19.12367,259522
19.12993,256098
19.13618,267258
19.14243,258062
19.14870,257202
19.15495,240639
19.16120,219798
19.16747,210212
19.17372,201207
19.17997,197508
19.18623,199206
19.19248,204477
19.19873,201112
19.20500,199361
19.21125,200119
19.21750,193766
19.22375,185461
19.23002,181055
19.23627,173747
19.24252,177071
19.24878,171731
19.25503,168857
19.26128,159621
19.26755,158240
19.27380,161790
19.28005,168330
19.28632,175464
19.29257,184930
19.29882,184059
19.30508,178247
19.31133,166003
19.31758,167852
19.32385,159228
19.33010,161092
19.33635,178774
19.34262,204854
19.34887,230224
19.35512,245114
19.36138,243356
19.36763,223056
19.37388,211554
19.38015,204819
19.38640,211481
19.39265,224533
19.39892,244894
19.40517,258866
19.41142,249922
19.41768,231392
19.42393,210574
19.43018,192869
19.43645,189470
19.44270,199556
19.44895,212366
19.45520,214349
19.46147,206868
19.46772,193105
19.47397,182325
19.48023,178414
19.48648,188522
19.49273,193359
19.49900,197225
19.50525,214849
19.51150,223253
19.51777,229179
19.52402,234513
19.53027,224248
19.53653,222950
19.54278,250041
19.54903,302953
19.55530,325290
19.56155,310869
19.56780,278796
19.57407,224986
19.58032,196379
19.58657,181532
19.59283,183100
19.59908,181607
19.60533,188078
19.61160,175790
19.61785,179953
19.62410,183876
19.63037,200097
19.63662,224200
19.64287,235832
19.64913,221037
19.65538,211271
19.66163,225479
19.66788,253245
19.67415,314582
19.68040,355049
19.68665,364656
19.69292,344840
19.69917,297745
19.70542,272150
19.71168,271172
19.71793,267214
19.72418,259287
19.73045,261062
19.73670,264844
19.74295,258926
19.74922,249798
19.75547,233546
19.76172,231703
19.76798,241481
19.77423,251751
19.78048,244731
19.78675,245970
19.79300,271332
19.79925,313322
19.80552,347668
19.81177,318431
19.81802,259095
19.82428,206122
19.83053,181502
19.83678,166828
19.84305,168855
19.84930,180447
19.85555,203746
19.86182,242531
19.86807,272640
19.87432,277305
19.88057,255079
19.88683,222952
19.89308,212506
19.89933,271021
19.90560,539921
19.91185,1371185
19.91810,2894529
19.92437,4667855
19.93062,4909021
19.93687,3759322
19.94313,2126490
19.94938,819871
19.95563,397832
19.96190,373811
19.96815,478888
19.97440,634534
19.98067,754098
19.98692,740383
19.99317,646102
19.99943,473784
20.00568,351107
20.01193,273416
20.01820,236815
20.02445,223004
20.03070,214222
20.03697,213455
20.04322,227859
20.04947,239695
20.05573,251248
20.06198,230338
20.06823,210645
20.07450,182594
20.08075,181909
20.08700,194486
20.09327,210857
20.09952,224570
20.10577,216687
20.11202,196860
20.11828,176859
20.12453,178972
20.13078,178652
20.13705,180256
20.14330,190140
20.14955,195122
20.15582,187202
20.16207,180169
20.16832,175806
20.17458,176916
20.18083,175972
20.18708,186276
20.19335,195785
20.19960,217318
20.20585,235443
20.21212,269384
20.21837,337263
20.22462,420106
20.23088,515703
20.23713,548707
20.24338,502895
20.24965,387100
20.25590,289737
20.26215,235114
20.26842,207074
20.27467,191374
20.28092,213697
20.28718,285424
20.29343,488106
20.29968,816078
20.30595,1097261
20.31220,1036891
20.31845,806082
20.32470,498276
20.33097,313124
20.33722,245878
20.34347,244384
20.34973,258338
20.35598,248941
20.36223,234601
20.36850,213031
20.37475,208462
20.38100,206144
20.38727,217479
20.39352,216180
20.39977,217244
20.40603,237339
20.41228,272601
20.41853,350174
20.42480,506131
20.43105,833841
20.43730,1349122
20.44357,1687671
20.44982,1702065
20.45607,1256752
20.46233,757532
20.46858,488680
20.47483,479319
20.48110,593066
20.48735,694310
20.49360,709575
20.49987,552335
20.50612,399311
20.51237,308311
20.51863,280295
20.52488,282241
20.53113,279121
20.53738,291510
20.54365,367228
20.54990,460697
20.55615,540237
20.56242,517204
20.56867,428213
20.57492,351131
20.58118,316078
20.58743,330406
20.59368,357591
20.59995,367041
20.60620,337027
20.61245,289934
20.61872,255798
20.62497,229912
20.63122,208408
20.63748,197153
20.64373,203319
20.64998,222999
20.65625,234828
20.66250,234977
20.66875,229172
20.67502,223720
20.68127,208981
20.68752,206367
20.69378,204330
20.70003,224439
20.70628,308265
20.71255,511511
20.71880,858967
20.72505,1162527
20.73132,1147997
20.73757,907871
20.74382,618071
20.75008,438911
20.75633,457924
20.76258,631636
20.76883,839243
20.77510,959217
20.78135,844054
20.78760,619633
20.79387,433759
20.80012,338863
20.80637,284364
20.81263,247334
20.81888,264339
20.82513,265516
20.83140,273560
20.83765,299307
20.84390,327026
20.85017,325831
20.85642,311466
20.86267,308389
20.86893,302864
20.87518,294288
20.88143,285359
20.88770,289103
20.89395,294524
20.90020,313808
20.90647,338695
20.91272,359088
20.91897,369303
20.92523,397794
20.93148,519736
20.93773,755864
20.94400,1193208
20.95025,1415758
20.95650,1385821
20.96277,1057711
20.96902,749405
20.97527,584792
20.98152,475110
20.98778,402152
20.99403,382364
21.00028,467399
21.00655,693414
21.01280,890693
21.01905,1020257
21.02532,878814
21.03157,667889
21.03782,503297
21.04408,449597
21.05033,425188
21.05658,387874
21.06285,368680
21.06910,361782
21.07535,386927
21.08162,410798
21.08787,413047
21.09412,360128
21.10038,310642
21.10663,284203
21.11288,287303
21.11915,295408
21.12540,288421
21.13165,274935
21.13792,257244
21.14417,253349
21.15042,244443
21.15668,259502
21.16293,271537
21.16918,290830
21.17545,287725
21.18170,281579
21.18795,276060
21.19422,273175
21.20047,261271
21.20672,275973
21.21297,286580
21.21923,287189
21.22548,289222
21.23173,286869
21.23800,308918
21.24425,334479
21.25050,354443
21.25677,324423
21.26302,304393
21.26927,311580
21.27553,346039
21.28178,399863
21.28803,432786
21.29430,416565
21.30055,368464
21.30680,318354
21.31307,285943
21.31932,280032
21.32557,301299
21.33183,317661
21.33808,300183
21.34433,285738
21.35060,290330
21.35685,307883
21.36310,365058
21.36937,427578
21.37562,444935
21.38187,408435
21.38813,341975
21.39438,287007
21.40063,269241
21.40690,298441
21.41315,361806
21.41940,466407
21.42565,565379
21.43192,587515
21.43817,544797
21.44442,465506
21.45068,429600
21.45693,493984
21.46318,578367
21.46945,628396
21.47570,545116
21.48195,457121
21.48822,411923
21.49447,418321
21.50072,424729
21.50698,404572
21.51323,373493
21.51948,308663
21.52575,257811
21.53200,238418
21.53825,240703
21.54452,242911
21.55077,232716
21.55702,220487
21.56328,240393
21.56953,256070
21.57578,276921
21.58205,280567
21.58830,282327
21.59455,293236
21.60082,293037
21.60707,265443
21.61332,243139
21.61958,212287
21.62583,194405
21.63208,179688
21.63835,169910
21.64460,178034
21.65085,162425
21.65710,168192
21.66337,175572
21.66962,178843
21.67587,207776
21.68213,196759
21.68838,202151
21.69463,194368
21.70090,180787
21.70715,158839
21.71340,151696
21.71967,145363
21.72592,152982
21.73217,159103
21.73843,159521
21.74468,164322
21.75093,176250
21.75720,186237
21.76345,189621
21.76970,192576
21.77597,199785
21.78222,225258
21.78847,255733
21.79473,278449
21.80098,280544
21.80723,271720
21.81350,265082
21.81975,250510
21.82600,223315
21.83227,219293
21.83852,225339
21.84477,243765
21.85103,268525
21.85728,293804
21.86353,324731
21.86978,332854
21.87605,311537
21.88230,254735
21.88855,215437
21.89482,201719
21.90107,215536
21.90732,235108
21.91358,245821
21.91983,242629
21.92608,220301
21.93235,193679
21.93860,182607
21.94485,177689
21.95112,173567
21.95737,165772
21.96362,163293
21.96988,175185
21.97613,192482
21.98238,207731
21.98865,228831
21.99490,235896
22.00115,225393
22.00742,215661
22.01367,204891
22.01992,196700
22.02618,199035
22.03243,208928
22.03868,221151
22.04495,237239
22.05120,258454
22.05745,279992
22.06372,297665
22.06997,299433
22.07622,308391
22.08248,294952
22.08873,271970
22.09498,252860
22.10123,241724
22.10750,233501
22.11375,223403
22.12000,233547
22.12627,232861
22.13252,238792
22.13877,229630
22.14503,212446
22.15128,201829
22.15753,205618
22.16380,206830
22.17005,210550
22.17630,216942
22.18257,224228
22.18882,223901
22.19507,218721
22.20133,211039
22.20758,198473
22.21383,190566
22.22010,191974
22.22635,199372
22.23260,207105
22.23887,232285
22.24512,291626
22.25137,378075
22.25763,480861
22.26388,521076
22.27013,484335
22.27640,408009
22.28265,336590
22.28890,301506
22.29517,293395
22.30142,283740
22.30767,261560
22.31392,241183
22.32018,227934
22.32643,224978
22.33268,222056
22.33895,229404
22.34520,266578
22.35145,421493
22.35772,769610
22.36397,1231568
22.37022,1433043
22.37648,1256529
22.38273,834436
22.38898,472632
22.39525,293190
22.40150,235275
22.40775,228174
22.41402,234726
22.42027,250149
22.42652,259308
22.43278,291305
22.43903,357822
22.44528,413045
22.45155,545532
22.45780,711892
22.46405,782361
22.47032,724397
22.47657,542962
22.48282,406334
22.48908,339417
22.49533,300750
22.50158,273956
22.50785,252314
22.51410,239471
22.52035,229779
22.52660,255675
22.53287,345887
22.53912,525067
22.54537,746690
22.55163,878288
22.55788,874745
22.56413,698733
22.57040,505287
22.57665,376313
22.58290,300044
22.58917,271341
22.59542,266460
22.60167,250231
22.60793,237461
22.61418,235391
22.62043,238598
22.62670,241554
22.63295,261245
22.63920,299868
22.64547,343991
22.65172,344180
22.65797,305239
22.66423,280075
22.67048,280258
22.67673,305026
22.68300,305226
22.68925,304386
22.69550,277946
22.70177,250784
22.70802,221970
22.71427,211032
22.72053,212307
22.72678,211545
22.73303,216831
22.73930,222125
22.74555,229491
22.75180,232676
22.75805,238680
22.76432,249914
22.77057,280347
22.77682,365077
22.78308,706560
22.78933,1998606
22.79558,5259066
22.80185,1.106852E+07
22.80810,1.593935E+07
22.81435,1.763914E+07
22.82062,1.428171E+07
22.82687,7700558
22.83312,2766906
22.83938,1008771
22.84563,523835
22.85188,393624
22.85815,358121
22.86440,341480
22.87065,308808
22.87692,287923
22.88317,264793
22.88942,256923
22.89568,249428
22.90193,251664
22.90818,252256
22.91445,253343
22.92070,265242
22.92695,270165
22.93322,278934
22.93947,286646
22.94572,274347
22.95198,265101
22.95823,255966
22.96448,254729
22.97073,291293
22.97700,346674
22.98325,393577
22.98950,406412
22.99577,376406
23.00202,330338
23.00827,270923
23.01453,236348
23.02078,222785
23.02703,216942
23.03330,217751
23.03955,220329
23.04580,226667
23.05207,237564
23.05832,262200
23.06457,344350
23.07083,496654
23.07708,632802
23.08333,654855
23.08960,574551
23.09585,429976
23.10210,321002
23.10837,259619
23.11462,228388
23.12087,207698
23.12713,202084
23.13338,196541
23.13963,198805
23.14590,199177
23.15215,186836
23.15840,185752
23.16467,185190
23.17092,185915
23.17717,187252
23.18342,188346
23.18968,201456
23.19593,202970
23.20218,202259
23.20845,203698
23.21470,204236
23.22095,187231
23.22722,191564
23.23347,189478
23.23972,189254
23.24598,190727
23.25223,205906
23.25848,197541
23.26475,197886
23.27100,190974
23.27725,191112
23.28352,191285
23.28977,205845
23.29602,248834
23.30228,320452
23.30853,410611
23.31478,528996
23.32105,572602
23.32730,502633
23.33355,357464
23.33982,284197
23.34607,243072
23.35232,220204
23.35858,209866
23.36483,205702
23.37108,202772
23.37735,202732
23.38360,211738
23.38985,220391
23.39612,217526
23.40237,210177
23.40862,209929
23.41487,202034
23.42113,198102
23.42738,202746
23.43363,215363
23.43990,247991
23.44615,306085
23.45240,372579
23.45867,405519
23.46492,410442
23.47117,420005
23.47743,458525
23.48368,522897
23.48993,558180
23.49620,545166
23.50245,547379
23.50870,615673
23.51497,711156
23.52122,765982
23.52747,699640
23.53373,530961
23.53998,382839
23.54623,309088
23.55250,298317
23.55875,322198
23.56500,372878
23.57127,466270
23.57752,567756
23.58377,642696
23.59003,651855
23.59628,639539
23.60253,608318
23.60880,539156
23.61505,461066
23.62130,379193
23.62755,333874
23.63382,325554
23.64007,335348
23.64632,340590
23.65258,319788
23.65883,281347
23.66508,247887
23.67135,233857
23.67760,235212
23.68385,245466
23.69012,264483
23.69637,279026
23.70262,273760
23.70888,288243
23.71513,334811
23.72138,470490
23.72765,612392
23.73390,665059
23.74015,571154
23.74642,434704
23.75267,328403
23.75892,269254
23.76518,250565
23.77143,240530
23.77768,240529
23.78395,245070
23.79020,256364
23.79645,254798
23.80272,265515
23.80897,292130
23.81522,314077
23.82148,340980
23.82773,336735
23.83398,309720
23.84023,287341
23.84650,262751
23.85275,259333
23.85900,261944
23.86527,265487
23.87152,268729
23.87777,294530
23.88403,337198
23.89028,374801
23.89653,387852
23.90280,367918
23.90905,334091
23.91530,304259
23.92157,286445
23.92782,281282
23.93407,278771
23.94033,288276
23.94658,333049
23.95283,516035
23.95910,1174839
23.96535,2503566
23.97160,4772754
23.97787,7673242
23.98412,1.236854E+07
23.99037,1.921593E+07
23.99663,2.509756E+07
24.00288,2.785136E+07
24.00913,2.327627E+07
24.01540,1.589492E+07
24.02165,7340547
24.02790,3118863
24.03417,1438247
24.04042,924461
24.04667,726703
24.05293,672272
24.05918,667081
24.06543,665094
24.07168,790345
24.07795,858135
24.08420,877746
24.09045,869506
24.09672,1180395
24.10297,2071797
24.10922,3591848
24.11548,5652651
24.12173,6116289
24.12798,5113747
24.13425,3438099
24.14050,1927630
24.14675,1044903
24.15302,660271
24.15927,526324
24.16552,487918
24.17178,524785
24.17803,648981
24.18428,873282
24.19055,1192635
24.19680,1740322
24.20305,3211382
24.20932,6635708
24.21557,1.239108E+07
24.22182,2.0388E+07
24.22808,2.837407E+07
24.23433,3.611199E+07
24.24058,4.201847E+07
24.24685,4.348208E+07
24.25310,4.455346E+07
24.25935,4.45935E+07
24.26562,4.423307E+07
24.27187,4.236404E+07
24.27812,2.277975E+07
24.28437,5571771
24.29063,2807848
24.29688,2235756
24.30313,1837629
24.30940,1809067
24.31565,1686875
24.32190,1696620
24.32817,1666162
24.33442,1675342
24.34067,1624614
24.34693,1661747
24.35318,1717934
24.35943,1751855
24.36570,1835567
24.37195,1904019
24.37820,1981347
24.38447,1902673
24.39072,1735756
24.39697,1588820
24.40323,1471289
24.40948,1425736
24.41573,1402271
24.42200,1450479
24.42825,1595542
24.43450,1885402
24.44077,2199736
24.44702,2301887
24.45327,2042744
24.45953,1633767
24.46578,1260203
24.47203,1015344
24.47830,911197
24.48455,847823
24.49080,833267
24.49707,801096
24.50332,811921
24.50957,788077
24.51582,785922
24.52208,761135
24.52833,736492
24.53458,716311
24.54085,704511
24.54710,698946
24.55335,667901
24.55962,656391
24.56587,657489
24.57212,703435
24.57838,780643
24.58463,814118
24.59088,807666
24.59715,739328
24.60340,660413
24.60965,574776
24.61592,526377
24.62217,494881
24.62842,470782
24.63468,458117
24.64093,444674
24.64718,431469
24.65345,408237
24.65970,400255
24.66595,387771
24.67222,388499
24.67847,384616
24.68472,393348
24.69098,400790
24.69723,410891
24.70348,425984
24.70975,456878
24.71600,465111
24.72225,443983
24.72850,400667
24.73477,363382
24.74102,347844
24.74727,329590
24.75353,320975
24.75978,336407
24.76603,345087
24.77230,363511
24.77855,363103
24.78480,348070
24.79107,328664
24.79732,298590
24.80357,285413
24.80983,277231
24.81608,278483
24.82233,267922
24.82860,272825
24.83485,260009
24.84110,254778
24.84737,240322
24.85362,244332
24.85987,234746
24.86613,242878
24.87238,266763
24.87863,300740
24.88490,364190
24.89115,432485
24.89740,444132
24.90367,413896
24.90992,359773
24.91617,344899
24.92243,354634
24.92868,351362
24.93493,349044
24.94118,360498
24.94745,401989
24.95370,447609
24.95995,468124
24.96622,417099
24.97247,369425
24.97872,320616
24.98498,283311
24.99123,268846
24.99748,256825
25.00375,257350
25.01000,251895
25.01625,245991
25.02252,235403
25.02877,242725
25.03502,254370
25.04128,254269
25.04753,256159
25.05378,240776
25.06005,235468
25.06630,218561
25.07255,216088
25.07882,221120
25.08507,205171
25.09132,201903
25.09758,206408
25.10383,208470
25.11008,203806
25.11635,200667
25.12260,197480
25.12885,198905
25.13512,198946
25.14137,188875
25.14762,184058
25.15388,179289
25.16013,176298
25.16638,183813
25.17263,207183
25.17890,241742
25.18515,301640
25.19140,309266
25.19767,299700
25.20392,260149
25.21017,221701
25.21643,193357
25.22268,178281
25.22893,174900
25.23520,170144
25.24145,166986
25.24770,164958
25.25397,168307
25.26022,166614
25.26647,174793
25.27273,179229
25.27898,209880
25.28523,271044
25.29150,350898
25.29775,380641
25.30400,395099
25.31027,346792
25.31652,271299
25.32277,221267
25.32903,196626
25.33528,190061
25.34153,183011
25.34780,180033
25.35405,178065
25.36030,183855
25.36657,189830
25.37282,190703
25.37907,197240
25.38532,212903
25.39158,266564
25.39783,403464
25.40408,622684
25.41035,842757
25.41660,900004
25.42285,722162
25.42912,529234
25.43537,398046
25.44162,327360
25.44788,289076
25.45413,269051
25.46038,251203
25.46665,239478
25.47290,239078
25.47915,246339
25.48542,292022
25.49167,372715
25.49792,454593
25.50418,536603
25.51043,531064
25.51668,464659
25.52295,402565
25.52920,400035
25.53545,462574
25.54172,558516
25.54797,610164
25.55422,553279
25.56048,417976
25.56673,307448
25.57298,249425
25.57925,217555
25.58550,201514
25.59175,200884
25.59800,207611
25.60427,215238
25.61052,223032
25.61677,226826
25.62303,215779
25.62928,209653
25.63553,201456
25.64180,195265
25.64805,186160
25.65430,180361
25.66057,177322
25.66682,174706
25.67307,172206
25.67933,178650
25.68558,172341
25.69183,170533
25.69810,169835
25.70435,168343
25.71060,160775
25.71687,163008
25.72312,160961
25.72937,166857
25.73563,160827
25.74188,172274
25.74813,170528
25.75440,170732
25.76065,168571
25.76690,166425
25.77317,169343
25.77942,170410
25.78567,164215
25.79193,156253
25.79818,160426
25.80443,155755
25.81070,150775
25.81695,150235
25.82320,147638
25.82945,148814
25.83572,146936
25.84197,147831
25.84822,148023
25.85448,150728
25.86073,151161
25.86698,155219
25.87325,151461
25.87950,151156
25.88575,148871
25.89202,144761
25.89827,149183
25.90452,147493
25.91078,144575
25.91703,144882
25.92328,151433
25.92955,149332
25.93580,157464
25.94205,155747
25.94832,151679
25.95457,151680
25.96082,148013
25.96708,152749
25.97333,160820
25.97958,166940
25.98585,171248
25.99210,168876
25.99835,159840
26.00462,152753
26.01087,148892
26.01712,149648
26.02338,147061
26.02963,153905
26.03588,155133
26.04213,159510
26.04840,156947
26.05465,158550
26.06090,154921
26.06717,155218
26.07342,152367
26.07967,150406
26.08593,148473
26.09218,138236
26.09843,147885
26.10470,144267
26.11095,148693
26.11720,143589
26.12347,142132
26.12972,140783
26.13597,134753
26.14223,143040
26.14848,135846
26.15473,139209
26.16100,142797
26.16725,139518
26.17350,143725
26.17977,150906
26.18602,143203
26.19227,142350
26.19853,142513
26.20478,140837
26.21103,137279
26.21730,138960
26.22355,139741
26.22980,141886
26.23607,137863
26.24232,142884
26.24857,141604
26.25482,138337
26.26108,134805
26.26733,135588
26.27358,138066
26.27985,138884
26.28610,142265
26.29235,141716
26.29862,139258
26.30487,140468
26.31112,149205
26.31738,140243
26.32363,144086
26.32988,141795
26.33615,145056
26.34240,143634
26.34865,158470
26.35492,167733
26.36117,205626
26.36742,271106
26.37368,347124
26.37993,435219
26.38618,454159
26.39245,383902
26.39870,282159
26.40495,211585
26.41122,179998
26.41747,165660
26.42372,164594
26.42998,161985
26.43623,155917
26.44248,158217
26.44875,154267
26.45500,156057
26.46125,156136
26.46752,155221
26.47377,156483
26.48002,160390
26.48627,161965
26.49253,157834
26.49878,160362
26.50503,158998
26.51130,154540
26.51755,164643
26.52380,171019
26.53007,182056
26.53632,190047
26.54257,181001
26.54883,168488
26.55508,160813
26.56133,156094
26.56760,151344
26.57385,153159
26.58010,147221
26.58637,153389
26.59262,155605
26.59887,159963
26.60513,166418
26.61138,170665
26.61763,179633
26.62390,175511
26.63015,173956
26.63640,167178
26.64267,180761
26.64892,234542
26.65517,357517
26.66143,586374
26.66768,855841
26.67393,1027783
26.68020,957773
26.68645,742103
26.69270,540461
26.69895,426876
26.70522,362071
26.71147,315669
26.71772,274730
26.72398,240832
26.73023,216849
26.73648,210233
26.74275,202728
26.74900,218379
26.75525,260970
26.76152,311828
26.76777,382160
26.77402,369650
26.78028,342952
26.78653,321075
26.79278,319741
26.79905,311635
26.80530,288360
26.81155,278829
26.81782,312769
26.82407,434991
26.83032,641912
26.83658,813735
26.84283,895845
26.84908,765468
26.85535,547298
26.86160,371901
26.86785,286118
26.87412,261882
26.88037,278881
26.88662,328760
26.89288,401803
26.89913,592591
26.90538,1315088
26.91165,3165361
26.91790,6815398
26.92415,1.186417E+07
26.93040,1.702835E+07
26.93667,1.959234E+07
26.94292,1.614743E+07
26.94917,9035449
26.95543,3749532
26.96168,1844157
26.96793,1117048
26.97420,733680
26.98045,512817
26.98670,380224
26.99297,323961
26.99922,320918
27.00547,383762
27.01173,544695
27.01798,848968
27.02423,1208833
27.03050,1289857
27.03675,994980
27.04300,687356
27.04927,475362
27.05552,382602
27.06177,343875
27.06803,328309
27.07428,305091
27.08053,279817
27.08680,259854
27.09305,245440
27.09930,233245
27.10557,226484
27.11182,226970
27.11807,251491
27.12433,282183
27.13058,351182
27.13683,402173
27.14308,411317
27.14935,367775
27.15560,308016
27.16185,265034
27.16812,246054
27.17437,248247
27.18062,251556
27.18688,245819
27.19313,232988
27.19938,233540
27.20565,233158
27.21190,232840
27.21815,240831
27.22442,226757
27.23067,229854
27.23692,231839
27.24318,239728
27.24943,242113
27.25568,246232
27.26195,244929
27.26820,230249
27.27445,222224
27.28072,220486
27.28697,222255
27.29322,217426
27.29948,212416
27.30573,215844
27.31198,215257
27.31825,215387
27.32450,214031
27.33075,208981
27.33702,207880
27.34327,215243
27.34952,224115
27.35578,218030
27.36203,223901
27.36828,228445
27.37453,220498
27.38080,220823
27.38705,225226
27.39330,229065
27.39957,248147
27.40582,268506
27.41207,282918
27.41833,269140
27.42458,255379
27.43083,240362
27.43710,221072
27.44335,216669
27.44960,215231
27.45587,202843
27.46212,204113
27.46837,203462
27.47463,198927
27.48088,211433
27.48713,209096
27.49340,204104
27.49965,200742
27.50590,200641
27.51217,196048
27.51842,199009
27.52467,206190
27.53093,201620
27.53718,203757
27.54343,205133
27.54970,203111
27.55595,199746
27.56220,200986
27.56847,196020
27.57472,193606
27.58097,202197
27.58722,204712
27.59348,206096
27.59973,196242
27.60598,197342
27.61225,204202
27.61850,202638
27.62475,203749
27.63102,201200
27.63727,210232
27.64352,206478
27.64978,204762
27.65603,212835
27.66228,210309
27.66855,212408
27.67480,217170
27.68105,213515
27.68732,219833
27.69357,208511
27.69982,216914
27.70608,214191
27.71233,214641
27.71858,231469
27.72485,224463
27.73110,231169
27.73735,227167
27.74362,228259
27.74987,223916
27.75612,223037
27.76238,229923
27.76863,237615
27.77488,228510
27.78115,225342
27.78740,218577
27.79365,219780
27.79992,220797
27.80617,217102
27.81242,216720
27.81867,211306
27.82493,215883
27.83118,216424
27.83743,241264
27.84370,283825
27.84995,392574
27.85620,575228
27.86247,831397
27.86872,1001826
27.87497,958275
27.88123,799490
27.88748,605303
27.89373,469371
27.90000,384082
27.90625,337823
27.91250,301697
27.91877,297976
27.92502,269049
27.93127,259274
27.93753,264444
27.94378,262389
27.95003,254732
27.95630,254473
27.96255,242906
27.96880,244660
27.97507,257283
27.98132,246168
27.98757,252469
27.99383,255411
28.00008,250038
28.00633,248047
28.01260,251235
28.01885,236661
28.02510,241988
28.03135,240649
28.03762,238513
28.04387,241236
28.05012,229685
28.05638,231323
28.06263,235121
28.06888,229803
28.07515,228784
28.08140,229956
28.08765,226958
28.09392,238493
28.10017,233738
28.10642,230157
28.11268,243261
28.11893,229533
28.12518,238913
28.13145,240300
28.13770,229415
28.14395,229694
28.15022,228476
28.15647,226810
28.16272,228447
28.16898,235141
28.17523,229301
28.18148,227318
28.18775,234353
28.19400,230949
28.20025,225655
28.20652,228884
28.21277,233358
28.21902,239398
28.22528,241074
28.23153,235561
28.23778,235042
28.24403,233901
28.25030,242445
28.25655,240245
28.26280,242796
28.26907,246221
28.27532,243283
28.28157,253843
28.28783,251145
28.29408,256580
28.30033,260222
28.30660,262183
28.31285,272853
28.31910,272015
28.32537,270548
28.33162,283192
28.33787,287638
28.34413,292271
28.35038,288706
28.35663,295827
28.36290,307313
28.36915,304179
28.37540,299936
28.38167,307221
28.38792,306034
28.39417,309489
28.40043,298864
28.40668,307347
28.41293,299418
28.41920,295987
28.42545,295878
28.43170,282585
28.43797,282614
28.44422,276959
28.45047,269291
28.45673,267310
28.46298,274648
28.46923,271238
28.47548,262860
28.48175,251912
28.48800,255031
28.49425,251541
28.50052,246810
28.50677,252799
28.51302,248775
28.51928,249682
28.52553,255876
28.53178,243717
28.53805,245187
28.54430,243659
28.55055,240804
28.55682,244737
28.56307,241173
28.56932,239163
28.57558,237115
28.58183,242283
28.58808,241411
28.59435,242505
28.60060,233600
28.60685,240609
28.61312,242464
28.61937,232868
28.62562,235935
28.63188,242095
28.63813,240464
28.64438,242092
28.65065,236019
28.65690,242443
28.66315,232112
28.66942,231743
28.67567,232280
28.68192,234074
28.68817,236806
28.69443,229982
28.70068,229643
28.70693,235603
28.71320,230157
28.71945,237502
28.72570,235170
28.73197,242909
28.73822,244340
28.74447,237653
28.75073,237344
28.75698,226934
28.76323,237377
28.76950,226830
28.77575,231425
28.78200,232111
28.78827,235243
28.79452,228218
28.80077,233339
28.80703,224938
28.81328,236195
28.81953,235718
28.82580,234298
28.83205,229364
28.83830,232167
28.84457,232905
28.85082,226015
28.85707,233713
28.86333,230858
28.86958,229849
28.87583,231755
28.88210,229154
28.88835,223137
28.89460,224222
28.90085,231051
28.90712,219967
28.91337,227661
28.91962,223151
28.92588,223621
28.93213,231078
28.93838,230330
28.94465,220238
28.95090,219542
28.95715,222454
28.96342,231396
28.96967,218525
28.97592,225156
28.98218,230478
28.98843,230156
28.99468,223868
29.00095,226451
29.00720,225566
29.01345,223656
29.01972,224697
29.02597,232807
29.03222,230067
29.03848,226002
29.04473,233285
29.05098,228846
29.05725,228807
29.06350,222303
29.06975,219653
29.07602,227040
29.08227,227094
29.08852,222446
29.09478,226177
29.10103,226516
29.10728,220473
29.11355,221438
29.11980,227725
29.12605,219684
29.13230,221736
29.13857,217103
29.14482,224045
29.15107,226774
29.15733,220171
29.16358,219060
29.16983,225824
29.17610,216818
29.18235,227311
29.18860,219767
29.19487,231705
29.20112,231362
29.20737,239034
29.21363,270920
29.21988,316164
29.22613,384211
29.23240,461082
29.23865,561236
29.24490,603959
29.25117,586056
29.25742,571919
29.26367,498921
29.26993,399936
29.27618,345436
29.28243,320668
29.28870,290003
29.29495,283350
29.30120,270746
29.30747,261506
29.31372,250462
29.31997,246963
29.32623,247328
29.33248,242367
29.33873,241884
29.34498,237135
29.35125,235382
29.35750,244374
29.36375,235645
29.37002,233050
29.37627,239832
29.38252,235922
29.38878,229614
29.39503,234606
29.40128,233286
29.40755,231613
29.41380,230219
29.42005,233917
29.42632,226877
29.43257,235144
29.43882,227230
29.44508,224874
29.45133,227629
29.45758,227933
29.46385,228762
29.47010,228429
29.47635,229271
29.48262,229796
29.48887,224741
29.49512,225260
29.50138,223506
29.50763,222932
29.51388,226499
29.52015,216989
29.52640,224164
29.53265,228150
29.53892,229111
29.54517,216154
29.55142,226019
29.55768,218402
29.56393,225276
29.57018,219805
29.57643,217221
29.58270,215983
29.58895,223016
29.59520,218379
29.60147,225119
29.60772,215482
29.61397,214812
29.62023,215797
29.62648,214765
29.63273,215222
29.63900,222368
29.64525,216099
29.65150,217879
29.65777,223295
29.66402,229894
29.67027,216946
29.67653,215542
29.68278,210601
29.68903,222490
29.69530,212717
29.70155,219293
29.70780,211814
29.71407,211498
29.72032,218584
29.72657,214874
29.73283,215018
29.73908,215379
29.74533,218464
29.75160,219370
29.75785,218939
29.76410,214204
29.77037,208406
29.77662,215080
29.78287,219631
29.78912,220824
29.79538,211124
29.80163,215373
29.80788,215080
29.81415,220934
29.82040,220566
29.82665,216961
29.83292,214916
29.83917,218631
29.84542,214651
29.85168,221958
29.85793,214955
29.86418,212492
29.87045,221585
29.87670,210587
29.88295,213788
29.88922,220343
29.89547,209029
29.90172,218902
29.90798,211921
29.91423,214543
29.92048,210890
29.92675,216497
29.93300,216881
29.93925,215497
29.94552,208071
29.95177,210097
29.95802,213077
29.96428,207023
29.97053,211512
29.97678,212403
29.98305,207011
29.98930,211183
29.99555,207894
30.00182,213160
30.00807,215253
30.01432,211968
30.02057,213111
30.02683,215409
30.03308,213706
30.03933,213833
30.04560,211309
30.05185,211056
30.05810,208730
30.06437,215000
30.07062,212684
30.07687,208808
30.08313,207617
30.08938,213519
30.09563,208842
30.10190,204079
30.10815,208555
30.11440,212419
30.12067,203133
30.12692,204172
30.13317,204698
30.13943,212226
30.14568,211255
30.15193,210346
30.15820,205326
30.16445,211714
30.17070,207656
30.17697,201316
30.18322,205840
30.18947,208562
30.19573,210828
30.20198,212291
30.20823,205530
30.21450,200837
30.22075,206685
30.22700,206860
30.23325,206493
30.23952,206655
30.24577,211341
30.25202,211454
30.25828,208064
30.26453,222643
30.27078,201526
30.27705,197569
30.28330,206736
30.28955,209837
30.29582,210879
30.30207,199267
30.30832,212747
30.31458,208322
30.32083,195520
30.32708,213101
30.33335,201684
30.33960,207817
30.34585,208868
30.35212,206903
30.35837,207088
30.36462,210004
30.37088,207928
30.37713,201126
30.38338,201016
30.38965,198822
30.39590,205770
30.40215,202979
30.40842,208806
30.41467,204278
30.42092,198794
30.42718,207407
30.43343,204891
30.43968,198252
30.44595,202212
30.45220,197935
30.45845,199037
30.46470,200163
30.47097,204433
30.47722,207971
30.48347,203668
30.48973,205015
30.49598,206447
30.50223,198080
30.50850,200325
30.51475,207608
30.52100,207373
30.52727,199230
30.53352,210462
30.53977,196117
30.54603,196264
30.55228,203321
30.55853,203358
30.56480,197797
30.57105,205336
30.57730,205756
30.58357,202039
30.58982,195933
30.59607,196464
30.60233,196758
30.60858,195269
30.61483,204826
30.62110,205517
30.62735,195678
30.63360,199287
30.63987,198653
30.64612,205209
30.65237,198405
30.65863,206963
30.66488,200770
30.67113,207431
30.67738,211176
30.68365,213512
30.68990,220319
30.69615,219767
30.70242,219235
30.70867,221079
30.71492,212279
30.72118,214690
30.72743,207404
30.73368,205824
30.73995,205979
30.74620,200803
30.75245,204024
30.75872,203892
30.76497,201297
30.77122,205220
30.77748,206553
30.78373,200191
30.78998,198954
30.79625,199248
30.80250,200568
30.80875,195081
30.81502,202659
30.82127,201711
30.82752,196391
30.83378,201825
30.84003,200566
30.84628,194629
30.85255,198665
30.85880,199297
30.86505,204727
30.87132,196719
30.87757,192313
30.88382,195562
30.89007,200010
30.89633,197678
30.90258,193804
30.90883,202132
30.91510,197206
30.92135,197191
30.92760,204631
30.93387,203184
30.94012,193532
30.94637,203741
30.95263,200919
30.95888,199194
30.96513,212860
30.97140,219261
30.97765,231847
30.98390,249665
30.99017,269914
30.99642,283810
31.00267,300972
31.00893,310985
31.01518,318757
31.02143,304039
31.02770,291193
31.03395,273997
31.04020,256981
31.04647,249858
31.05272,239248
31.05897,223022
31.06523,219696
31.07148,217753
31.07773,213956
31.08400,211968
31.09025,204393
31.09650,213162
31.10277,209614
31.10902,208759
31.11527,200402
31.12152,198731
31.12778,233221
31.13403,243958
31.14028,254049
31.14655,242818
31.15280,239608
31.15905,257442
31.16532,246156
31.17157,246491
31.17782,243616
31.18408,245764
31.19033,244785
31.19658,237160
31.20285,237959
31.20910,239993
31.21535,243087
31.22162,239591
31.22787,227501
31.23412,230388
31.24038,255103
31.24663,247987
31.25288,258319
31.25915,254729
31.26540,248806
31.27165,255158
31.27792,255539
31.28417,251802
31.29042,250237
31.29668,254623
31.30293,253690
31.30918,253438
31.31545,247326
31.32170,255133
31.32795,253064
31.33420,250345
31.34047,246945
31.34672,249222
31.35297,256800
31.35923,255559
31.36548,247341
31.37173,252681
31.37800,257403
31.38425,245457
31.39050,246377
31.39677,254572
31.40302,243268
31.40927,247492
31.41553,242738
31.42178,251252
31.42803,251455
31.43430,251577
31.44055,244145
31.44680,248108
31.45307,246137
31.45932,229103
31.46557,237615
31.47183,231919
31.47808,226679
31.48433,227125
31.49060,232761
31.49685,246038
31.50310,242508
31.50937,236286
31.51562,236205
31.52187,226927
31.52813,228553
31.53438,223186
31.54063,230876
31.54688,230358
31.55315,242291
31.55940,243906
31.56565,231407
31.57192,228017
31.57817,227456
31.58442,236878
31.59068,235112
31.59693,232772
31.60318,222000
31.60945,234040
31.61570,225971
31.62195,241871
31.62822,241316
31.63447,250231
31.64072,250567
31.64698,250093
31.65323,241574
31.65948,239031
31.66575,247778
31.67200,242263
31.67825,245578
31.68452,242672
31.69077,242649
31.69702,244922
31.70328,247540
31.70953,250739
31.71578,239803
31.72205,248355
31.72830,244530
31.73455,241021
31.74082,246438
31.74707,242084
31.75332,245419
31.75958,239432
31.76583,248317
31.77208,240352
31.77833,237627
31.78460,238414
31.79085,251710
31.79710,240901
31.80337,238907
31.80962,238304
31.81587,241273
31.82213,241984
31.82838,244571
31.83463,241204
31.84090,246449
31.84715,244938
31.85340,235935
31.85967,245552
31.86592,247699
31.87217,234831
31.87843,236920
31.88468,244502
31.89093,239078
31.89720,245109
31.90345,246589
31.90970,245941
31.91597,246697
31.92222,246068
31.92847,233700
31.93473,235722
31.94098,251129
31.94723,234560
31.95350,238526
31.95975,241453
31.96600,238894
31.97227,236830
31.97852,236361
31.98477,237724
31.99102,232871
31.99728,234237
32.00353,233412
32.00978,244274
32.01605,240658
32.02230,235382
32.02855,234760
32.03482,238570
32.04107,238100
32.04732,243058
32.05358,234747
32.05983,234761
32.06608,245183
32.07235,242407
32.07860,239581
32.08485,229613
32.09112,234293
32.09737,242704
32.10362,238507
32.10988,233049
32.11613,241757
32.12238,243825
32.12865,242255
32.13490,232997
32.14115,234569
32.14742,233551
32.15367,237761
32.15992,232581
32.16618,233997
32.17243,239053
32.17868,236255
32.18495,229785
32.19120,239916
32.19745,232743
32.20372,232586
32.20997,232766
32.21622,240999
32.22247,237289
32.22873,239208
32.23498,237393
32.24123,234716
32.24750,233394
32.25375,237665
32.26000,241732
32.26627,240458
32.27252,237065
32.27877,235402
32.28503,240446
32.29128,241958
32.29753,232437
32.30380,228471
32.31005,230798
32.31630,231283
32.32257,231022
32.32882,237678
32.33507,236533
32.34133,239838
32.34758,238778
32.35383,237288
32.36010,231029
32.36635,238578
32.37260,231327
32.37887,232407
32.38512,239306
32.39137,227784
32.39763,225306
32.40388,235897
32.41013,233010
32.41640,234384
32.42265,235846
32.42890,237880
32.43515,228658
32.44142,233403
32.44767,236651
32.45392,236974
32.46018,234543
32.46643,228280
32.47268,227680
32.47895,235278
32.48520,231147
32.49145,236713
32.49772,235842
32.50397,236994
32.51022,238908
32.51648,228648
32.52273,232278
32.52898,228884
32.53525,232230
32.54150,234577
32.54775,226993
32.55402,223012
32.56027,228985
32.56652,229199
32.57278,226984
32.57903,225576
32.58528,226802
32.59155,233144
32.59780,224719
32.60405,236645
32.61032,227870
32.61657,226017
32.62282,235635
32.62908,234378
32.63533,225864
32.64158,228985
32.64785,232349
32.65410,228632
32.66035,223351
32.66660,228075
32.67287,230278
32.67912,226002
32.68537,223471
32.69163,234374
32.69788,219876
32.70413,223256
32.71040,226366
32.71665,233713
32.72290,232983
32.72917,223037
32.73542,232313
32.74167,228568
32.74793,228957
32.75418,223841
32.76043,227499
32.76670,232653
32.77295,233608
32.77920,224983
32.78547,220697
32.79172,228804
32.79797,230069
32.80423,223435
32.81048,228196
32.81673,229605
32.82300,233446
32.82925,222292
32.83550,222282
32.84177,225564
32.84802,218355
32.85427,227241
32.86053,228545
32.86678,230683
32.87303,220148
32.87928,224287
32.88555,220542
32.89180,223464
32.89805,218298
32.90432,230366
32.91057,223997
32.91682,221682
32.92308,228832
32.92933,219176
32.93558,222126
32.94185,222699
32.94810,232623
32.95435,220510
32.96062,227551
32.96687,232430
32.97312,222079
32.97938,224117
32.98563,231659
32.99188,219641
32.99815,218158
33.00440,227166
33.01065,230591
33.01692,219791
33.02317,222317
33.02942,217735
33.03568,225510
33.04193,227863
33.04818,228497
33.05445,226046
33.06070,228828
33.06695,228104
33.07322,226242
33.07947,218469
33.08572,219530
33.09198,227970
33.09823,225129
33.10448,219568
33.11073,217950
33.11700,217209
33.12325,218124
33.12950,222695
33.13577,230876
33.14202,230508
33.14827,238768
33.15453,230628
33.16078,234755
33.16703,230525
33.17330,231687
33.17955,237221
33.18580,240852
33.19207,235708
33.19832,228223
33.20457,227361
33.21083,225548
33.21708,221802
33.22333,233329
33.22960,230380
33.23585,219090
33.24210,221040
33.24837,218875
33.25462,217917
33.26087,220714
33.26713,218825
33.27338,221448
33.27963,224523
33.28590,220256
33.29215,220037
33.29840,227169
33.30467,220942
33.31092,219026
33.31717,226890
33.32342,222722
33.32968,224561
33.33593,231234
33.34218,238007
33.34845,235958
33.35470,247717
33.36095,245523
33.36722,245444
33.37347,252463
33.37972,255258
33.38598,245374
33.39223,241746
33.39848,243508
33.40475,237564
33.41100,233429
33.41725,234164
33.42352,225694
33.42977,223491
33.43602,223393
33.44228,221754
33.44853,230245
33.45478,228292
33.46105,222584
33.46730,217583
33.47355,224421
33.47982,214918
33.48607,213701
33.49232,226147
33.49858,213284
33.50483,224700
33.51108,219642
33.51735,216783
33.52360,218809
33.52985,214384
33.53610,216049
33.54237,224335
33.54862,222142
33.55487,216993
33.56113,215372
33.56738,216168
33.57363,220761
33.57990,213223
33.58615,214732
33.59240,217116
33.59867,213671
33.60492,214726
33.61117,215701
33.61743,214288
33.62368,212762
33.62993,213298
33.63620,216846
33.64245,214518
33.64870,215609
33.65497,212990
33.66122,218894
33.66747,217673
33.67373,209360
33.67998,217585
33.68623,219453
33.69250,219664
33.69875,212686
33.70500,212931
33.71127,210687
33.71752,211808
33.72377,214870
33.73003,213170
33.73628,219778
33.74253,208438
33.74880,219310
33.75505,216048
33.76130,219877
33.76755,209697
33.77382,217383
33.78007,215170
33.78632,218049
33.79258,207584
33.79883,218375
33.80508,206325
33.81135,215277
33.81760,210211
33.82385,217401
33.83012,208618
33.83637,208200
33.84262,215327
33.84888,210674
33.85513,214069
33.86138,209283
33.86765,218925
33.87390,215221
33.88015,209938
33.88642,210634
33.89267,210003
33.89892,207149
33.90518,214762
33.91143,211619
33.91768,208295
33.92395,207561
33.93020,217936
33.93645,204500
33.94272,211794
33.94897,211576
33.95522,207967
33.96148,213880
33.96773,207618
33.97398,208289
33.98023,206794
33.98650,206046
33.99275,214210
33.99900,204538
34.00527,215193
34.01152,213920
34.01777,204715
34.02403,215161
34.03028,213874
34.03653,211630
34.04280,205397
34.04905,206778
34.05530,205619
34.06157,211387
34.06782,208774
34.07407,201282
34.08033,205628
34.08658,213983
34.09283,208881
34.09910,212874
34.10535,207910
34.11160,214331
34.11787,211781
34.12412,204890
34.13037,208424
34.13663,208184
34.14288,206412
34.14913,209362
34.15540,203353
34.16165,207507
34.16790,205481
34.17417,205958
34.18042,203831
34.18667,205672
34.19292,203642
34.19918,212201
34.20543,214635
34.21168,212187
34.21795,209052
34.22420,212581
34.23045,203440
34.23672,212768
34.24297,211881
34.24922,210323
34.25548,205895
34.26173,200088
34.26798,203267
34.27425,213241
34.28050,201486
34.28675,198834
34.29302,204600
34.29927,210617
34.30552,205702
34.31178,210848
34.31803,210525
34.32428,210026
34.33055,204068
34.33680,213095
34.34305,207630
34.34932,203589
34.35557,204918
34.36182,211003
34.36808,200658
34.37433,200433
34.38058,208754
34.38685,203259
34.39310,201699
34.39935,208459
34.40562,200083
34.41187,200235
34.41812,207937
34.42437,204725
34.43063,202192
34.43688,205257
34.44313,199809
34.44940,205362
34.45565,201397
34.46190,200060
34.46817,204419
34.47442,199593
34.48067,197783
34.48693,204582
34.49318,207786
34.49943,203262
34.50570,199480
34.51195,210270
34.51820,202062
34.52447,201177
34.53072,200666
34.53697,199497
34.54323,202848
34.54948,205911
34.55573,202989
34.56200,200468
34.56825,199602
34.57450,208368
34.58077,197869
34.58702,210604
34.59327,204391
34.59953,206190
34.60578,197274
34.61203,205338
34.61830,202441
34.62455,210117
34.63080,203244
34.63705,200482
34.64332,210567
34.64957,201311
34.65582,204435
34.66208,198503
34.66833,200565
34.67458,202926
34.68085,206244
34.68710,197876
34.69335,200353
34.69962,200778
34.70587,199372
34.71212,205618
34.71838,205992
34.72463,199311
34.73088,198917
34.73715,193433
34.74340,196409
34.74965,196535
34.75592,199088
34.76217,197153
34.76842,205224
34.77468,204635
34.78093,199642
34.78718,204553
34.79345,202639
34.79970,203576
34.80595,203600
34.81222,193113
34.81847,200287
34.82472,198368
34.83098,196880
34.83723,198644
34.84348,198741
34.84975,197990
34.85600,202054
34.86225,199092
34.86850,196006
34.87477,198997
34.88102,194928
34.88727,199588
34.89353,195570
34.89978,203771
34.90603,197749
34.91230,202278
34.91855,193485
34.92480,202483
34.93107,204771
34.93732,200670
34.94357,195524
34.94983,196195
34.95608,197414
34.96233,201523
34.96860,201373
34.97485,203218
34.98110,207340
34.98737,197235
34.99362,197086
34.99987,202849
35.00613,195859
35.01238,191998
35.01863,200315
35.02490,193961
35.03115,198342
35.03740,196193
35.04367,201266
35.04992,203614
35.05617,202209
35.06243,199135
35.06868,192080
35.07493,196299
35.08118,193376
35.08745,198954
35.09370,201999
35.09995,204383
35.10622,201127
35.11247,201130
35.11872,200555
35.12498,189834
35.13123,199312
35.13748,201128
35.14375,195411
35.15000,192049
35.15625,198508
35.16252,193720
35.16877,193760
35.17502,189204
35.18128,194054
35.18753,192545
35.19378,200484
35.20005,198289
35.20630,189625
35.21255,194784
35.21882,199476
35.22507,199277
35.23132,194620
35.23758,192315
35.24383,192950
35.25008,199307
35.25635,192377
35.26260,195573
35.26885,200391
35.27512,192374
35.28137,193319
35.28762,195004
35.29388,193126
35.30013,196260
35.30638,191313
35.31263,195773
35.31890,196456
35.32515,194157
35.33140,191815
35.33767,193581
35.34392,198654
35.35017,198056
35.35643,191122
35.36268,191422
35.36893,190640
35.37520,188780
35.38145,188946
35.38770,185880
35.39397,191492
35.40022,194647
35.40647,192642
35.41273,196913
35.41898,200101
35.42523,191266
35.43150,194895
35.43775,190828
35.44400,192324
35.45027,191307
35.45652,189506
35.46277,186700
35.46903,187910
35.47528,197175
35.48153,193188
35.48780,191967
35.49405,191956
35.50030,199829
35.50657,191028
35.51282,191639
35.51907,195050
35.52532,190132
35.53158,189715
35.53783,193692
35.54408,189881
35.55035,196981
35.55660,191804
35.56285,193733
35.56912,193639
35.57537,202006
35.58162,192300
35.58788,188776
35.59413,196905
35.60038,192183
35.60665,193721
35.61290,197302
35.61915,196925
35.62542,194783
35.63167,193019
35.63792,193449
35.64418,189440
35.65043,190744
35.65668,187910
35.66295,186652
35.66920,186653
35.67545,191661
35.68172,187313
35.68797,190432
35.69422,193326
35.70048,192706
35.70673,188958
35.71298,195353
35.71925,194363
35.72550,190069
35.73175,185830
35.73802,186360
35.74427,192371
35.75052,186499
35.75677,183391
35.76303,187525
35.76928,186784
35.77553,189070
35.78180,191656
35.78805,192758
35.79430,188649
35.80057,182883
35.80682,185716
35.81307,194716
35.81933,186857
35.82558,192419
35.83183,190869
35.83810,188412
35.84435,194083
35.85060,187631
35.85687,184349
35.86312,190014
35.86937,190483
35.87563,185699
35.88188,185911
35.88813,186834
35.89440,191764
35.90065,193426
35.90690,185370
35.91317,192153
35.91942,185199
35.92567,183637
35.93193,191491
35.93818,189720
35.94443,183483
35.95070,190233
35.95695,191528
35.96320,189322
35.96945,183091
35.97572,188338
35.98197,186415
35.98822,184348
35.99448,192533
36.00073,190793
36.00698,187249
36.01325,191383
36.01950,190711
36.02575,192462
36.03202,190468
36.03827,183930
36.04452,186053
36.05078,188420
36.05703,183749
36.06328,184480
36.06955,184080
36.07580,190761
36.08205,188968
36.08832,189496
36.09457,187804
36.10082,185080
36.10708,183466
36.11333,189121
36.11958,184389
36.12585,188816
36.13210,187827
36.13835,183171
36.14462,184636
36.15087,184927
36.15712,182207
36.16338,185327
36.16963,180816
36.17588,185044
36.18213,183366
36.18840,189983
36.19465,185224
36.20090,184412
36.20717,194500
36.21342,190772
36.21967,191671
36.22593,199415
36.23218,192074
36.23843,201530
36.24470,211140
36.25095,213239
36.25720,220060
36.26347,236923
36.26972,248700
36.27597,253470
36.28223,268775
36.28848,278493
36.29473,289420
36.30100,293364
36.30725,296212
36.31350,308194
36.31977,300005
36.32602,307163
36.33227,306524
36.33853,295084
36.34478,286469
36.35103,272029
36.35730,265326
36.36355,251161
36.36980,241043
36.37607,236197
36.38232,229076
36.38857,216512
36.39483,211015
36.40108,208000
36.40733,203281
36.41358,207178
36.41985,205354
36.42610,194773
36.43235,195296
36.43862,199860
36.44487,191633
36.45112,198242
36.45738,190099
36.46363,191990
36.46988,193241
36.47615,194971
36.48240,194546
36.48865,188750
36.49492,188320
36.50117,190177
36.50742,187990
36.51368,195053
36.51993,186824
36.52618,185772
36.53245,193015
36.53870,197420
36.54495,187019
36.55122,186748
36.55747,193962
36.56372,192409
36.56998,192729
36.57623,190507
36.58248,192018
36.58875,184277
36.59500,184537
36.60125,190157
36.60752,193377
36.61377,185233
36.62002,188824
36.62627,194611
36.63253,188970
36.63878,193583
36.64503,191155
36.65130,184911
36.65755,184067
36.66380,187622
36.67007,193011
36.67632,183189
36.68257,189062
36.68883,185601
36.69508,188504
36.70133,185058
36.70760,184653
36.71385,184104
36.72010,183576
36.72637,179166
36.73262,185816
36.73887,185993
36.74513,186106
36.75138,183715
36.75763,180994
36.76390,180747
36.77015,181843
36.77640,187690
36.78267,181475
36.78892,184737
36.79517,184187
36.80143,184763
36.80768,181656
36.81393,176738
36.82020,182867
36.82645,181406
36.83270,187364
36.83895,186143
36.84522,180725
36.85147,178501
36.85772,178156
36.86398,180368
36.87023,180173
36.87648,178980
36.88275,189212
36.88900,177783
36.89525,181547
36.90152,179809
36.90777,184145
36.91402,177414
36.92028,180757
36.92653,184103
36.93278,185724
36.93905,185296
36.94530,185459
36.95155,176976
36.95782,180769
36.96407,180532
36.97032,178621
36.97658,172664
36.98283,176365
36.98908,177650
36.99535,181820
37.00160,184095
37.00785,185360
37.01412,185750
37.02037,175747
37.02662,183693
37.03288,182253
37.03913,176117
37.04538,180818
37.05165,183572
37.05790,178814
37.06415,174348
37.07040,180906
37.07667,177911
37.08292,182176
37.08917,178473
37.09543,179745
37.10168,178640
37.10793,177614
37.11420,176083
37.12045,179391
37.12670,178881
37.13297,175949
37.13922,177176
37.14547,179316
37.15173,177287
37.15798,180501
37.16423,179842
37.17050,172949
37.17675,179183
37.18300,183339
37.18927,177984
37.19552,175947
37.20177,181357
37.20803,180874
37.21428,172016
37.22053,180083
37.22680,173457
37.23305,174759
37.23930,179068
37.24557,176388
37.25182,178355
37.25807,178579
37.26433,177269
37.27058,179780
37.27683,174297
37.28308,179441
37.28935,175801
37.29560,178327
37.30185,176878
37.30812,172633
37.31437,172027
37.32062,173076
37.32688,173363
37.33313,171133
37.33938,175819
37.34565,172126
37.35190,179900
37.35815,177206
37.36442,179417
37.37067,174101
37.37692,174863
37.38318,179027
37.38943,171148
37.39568,177888
37.40195,172847
37.40820,171993
37.41445,179893
37.42072,175859
37.42697,177217
37.43322,175548
37.43948,180863
37.44573,169982
37.45198,176272
37.45825,179146
37.46450,169523
37.47075,173320
37.47702,174895
37.48327,173032
37.48952,172759
