D:\MassHunter\GCMS\1\data\metastasis_lineages_3replicates_3runs_10302020\B_plate3_run3_10302020.D Sat Oct 31 15:44:11 2020
Start of data points
5.99330,161252
5.99955,172864
6.00580,162349
6.01207,167085
6.01832,182466
6.02457,201204
6.03083,205157
6.03708,211508
6.04333,233289
6.04958,236822
6.05585,229763
6.06210,207644
6.06835,224778
6.07462,238693
6.08087,257223
6.08712,247494
6.09338,238333
6.09963,292597
6.10588,568512
6.11215,1090178
6.11840,1394722
6.12465,1110545
6.13092,637581
6.13717,394750
6.14342,327855
6.14968,301540
6.15593,360333
6.16218,596844
6.16845,998145
6.17470,1258085
6.18095,1110893
6.18722,738883
6.19347,474019
6.19972,355100
6.20598,283137
6.21223,238141
6.21848,207798
6.22475,201412
6.23100,216648
6.23725,214440
6.24352,197633
6.24977,185408
6.25602,167014
6.26227,168037
6.26853,166612
6.27478,163266
6.28103,172889
6.28730,183845
6.29355,167443
6.29980,162318
6.30607,184504
6.31232,268106
6.31857,498121
6.32483,863236
6.33108,1324521
6.33733,2353512
6.34360,5054628
6.34985,9837732
6.35610,1.35002E+07
6.36237,1.143586E+07
6.36862,5267984
6.37487,1338634
6.38113,376482
6.38738,240019
6.39363,215466
6.39990,224757
6.40615,266567
6.41240,363749
6.41867,506486
6.42492,744898
6.43117,1041298
6.43743,1197821
6.44368,1023113
6.44993,668812
6.45620,597985
6.46245,1427063
6.46870,4167425
6.47495,9453182
6.48122,1.607197E+07
6.48747,2.239407E+07
6.49372,2.814314E+07
6.49998,3.394285E+07
6.50623,3.996508E+07
6.51248,4.443018E+07
6.51875,4.746814E+07
6.52500,4.786524E+07
6.53125,4.742092E+07
6.53752,4.480007E+07
6.54377,1.255551E+07
6.55002,1156425
6.55628,738344
6.56253,730426
6.56878,692687
6.57505,881434
6.58130,1594046
6.58755,2612778
6.59382,2868015
6.60007,1899487
6.60632,832301
6.61258,440644
6.61883,345832
6.62508,312330
6.63135,306488
6.63760,312940
6.64385,313009
6.65012,313744
6.65637,290842
6.66262,267738
6.66888,279285
6.67513,340401
6.68138,434941
6.68765,498006
6.69390,429422
6.70015,341979
6.70640,298722
6.71267,293234
6.71892,315152
6.72517,324654
6.73143,332795
6.73768,336757
6.74393,354697
6.75020,374039
6.75645,385299
6.76270,375429
6.76897,373496
6.77522,374137
6.78147,380755
6.78773,387730
6.79398,397174
6.80023,407188
6.80650,424997
6.81275,458663
6.81900,493028
6.82527,503853
6.83152,494993
6.83777,500312
6.84403,510135
6.85028,560115
6.85653,640025
6.86280,690008
6.86905,627903
6.87530,543050
6.88157,519619
6.88782,581639
6.89407,701222
6.90033,778183
6.90658,726155
6.91283,605765
6.91908,518262
6.92535,477100
6.93160,465311
6.93785,463999
6.94412,465889
6.95037,439784
6.95662,427259
6.96288,421087
6.96913,399296
6.97538,392581
6.98165,396712
6.98790,399863
6.99415,388533
7.00042,361903
7.00667,335161
7.01292,333807
7.01918,351126
7.02543,434333
7.03168,675065
7.03795,1214967
7.04420,2375906
7.05045,4677155
7.05672,7242452
7.06297,7774767
7.06922,5128406
7.07548,2164317
7.08173,718898
7.08798,297281
7.09425,223535
7.10050,201194
7.10675,184144
7.11302,170845
7.11927,161436
7.12552,155617
7.13177,146001
7.13803,156095
7.14428,193798
7.15053,269545
7.15680,355994
7.16305,385377
7.16930,305486
7.17557,200989
7.18182,148701
7.18807,130960
7.19433,122984
7.20058,135604
7.20683,148504
7.21310,160345
7.21935,169909
7.22560,155365
7.23187,144787
7.23812,144943
7.24437,162349
7.25063,181324
7.25688,233968
7.26313,365622
7.26940,608125
7.27565,777402
7.28190,704509
7.28817,463894
7.29442,276924
7.30067,191795
7.30693,172120
7.31318,163337
7.31943,156529
7.32570,137340
7.33195,131022
7.33820,120360
7.34447,126869
7.35072,122669
7.35697,128360
7.36322,116187
7.36948,114773
7.37573,109499
7.38198,117908
7.38825,125570
7.39450,143224
7.40075,163096
7.40702,158744
7.41327,154656
7.41952,188676
7.42578,286820
7.43203,415802
7.43828,469504
7.44455,420851
7.45080,303704
7.45705,211415
7.46332,165693
7.46957,157870
7.47582,163576
7.48208,165307
7.48833,175280
7.49458,197260
7.50085,220935
7.50710,244227
7.51335,269063
7.51962,250007
7.52587,191621
7.53212,146635
7.53838,127207
7.54463,127759
7.55088,166667
7.55715,485339
7.56340,1930473
7.56965,6273474
7.57590,1.41558E+07
7.58217,2.404874E+07
7.58842,3.145766E+07
7.59467,3.353477E+07
7.60093,2.576469E+07
7.60718,1.060747E+07
7.61343,3569467
7.61970,1749914
7.62595,1099781
7.63220,735383
7.63847,492674
7.64472,320595
7.65097,238869
7.65723,204241
7.66348,183059
7.66973,192838
7.67600,237504
7.68225,309268
7.68850,372871
7.69477,367267
7.70102,290050
7.70727,218152
7.71353,212656
7.71978,284531
7.72603,383724
7.73230,432749
7.73855,371533
7.74480,288540
7.75107,234569
7.75732,205562
7.76357,174512
7.76983,160360
7.77608,165118
7.78233,166657
7.78860,173741
7.79485,159604
7.80110,156701
7.80735,151435
7.81362,148955
7.81987,166166
7.82612,204610
7.83238,296658
7.83863,366129
7.84488,337189
7.85115,266793
7.85740,211197
7.86365,209205
7.86992,230643
7.87617,231004
7.88242,207934
7.88868,191035
7.89493,176928
7.90118,181224
7.90745,190795
7.91370,203273
7.91995,214214
7.92622,201660
7.93247,193330
7.93872,180813
7.94498,182968
7.95123,213970
7.95748,277470
7.96375,350973
7.97000,345781
7.97625,300238
7.98252,294487
7.98877,339735
7.99502,510621
8.00128,905235
8.00753,1454758
8.01378,2136296
8.02003,2805412
8.02630,2930101
8.03255,2187631
8.03880,1360533
8.04507,1005093
8.05132,1066902
8.05757,1124753
8.06383,976330
8.07008,644646
8.07633,382169
8.08260,280969
8.08885,333415
8.09510,456400
8.10137,544670
8.10762,586241
8.11387,682972
8.12013,890289
8.12638,992547
8.13263,782439
8.13890,467984
8.14515,271717
8.15140,208625
8.15767,176360
8.16392,162687
8.17017,154515
8.17643,150099
8.18268,150118
8.18893,139147
8.19520,139899
8.20145,134702
8.20770,130945
8.21397,132532
8.22022,140715
8.22647,153682
8.23272,184009
8.23898,244590
8.24523,273703
8.25148,255114
8.25775,220964
8.26400,198845
8.27025,197399
8.27652,200868
8.28277,207550
8.28902,232733
8.29528,238390
8.30153,219004
8.30778,185525
8.31405,139591
8.32030,121653
8.32655,116582
8.33282,122621
8.33907,126407
8.34532,132845
8.35158,135166
8.35783,143566
8.36408,164664
8.37035,167138
8.37660,153320
8.38285,143646
8.38912,132040
8.39537,147937
8.40162,202828
8.40788,344491
8.41413,495277
8.42038,501729
8.42665,364291
8.43290,245131
8.43915,183461
8.44542,185039
8.45167,194642
8.45792,183892
8.46417,175548
8.47043,167743
8.47668,160550
8.48293,153789
8.48920,155982
8.49545,158798
8.50170,169787
8.50797,182340
8.51422,190162
8.52047,179878
8.52673,155935
8.53298,129837
8.53923,120315
8.54550,117842
8.55175,121805
8.55800,140882
8.56427,217872
8.57052,373691
8.57677,618472
8.58303,944485
8.58928,1450874
8.59553,1821405
8.60180,1867609
8.60805,1873633
8.61430,3220148
8.62057,7443780
8.62682,1.421303E+07
8.63307,1.90743E+07
8.63933,1.752245E+07
8.64558,9769163
8.65183,2986122
8.65810,705529
8.66435,285983
8.67060,224765
8.67687,207340
8.68312,202044
8.68937,213043
8.69562,226617
8.70188,235831
8.70813,237244
8.71438,243675
8.72065,237718
8.72690,213293
8.73315,194975
8.73942,185202
8.74567,204859
8.75192,222203
8.75818,205234
8.76443,172018
8.77068,128190
8.77695,118975
8.78320,121666
8.78945,125729
8.79572,115471
8.80197,111133
8.80822,103650
8.81448,103848
8.82073,109998
8.82698,145314
8.83325,321039
8.83950,894350
8.84575,2127151
8.85202,4267708
8.85827,6243038
8.86452,7502640
8.87078,6956353
8.87703,6291522
8.88328,6035108
8.88955,6221528
8.89580,5422278
8.90205,2595763
8.90830,821117
8.91457,345717
8.92082,218534
8.92707,175115
8.93333,164225
8.93958,155791
8.94583,152969
8.95210,159282
8.95835,200935
8.96460,248314
8.97087,297881
8.97712,324669
8.98337,346003
8.98963,382991
8.99588,477005
9.00213,682239
9.00840,880387
9.01465,991568
9.02090,864652
9.02717,673894
9.03342,694543
9.03967,1184288
9.04593,1886082
9.05218,2097463
9.05843,1475139
9.06470,731760
9.07095,369271
9.07720,247581
9.08347,204438
9.08972,200899
9.09597,217946
9.10223,226820
9.10848,214313
9.11473,194584
9.12098,174721
9.12725,165397
9.13350,195585
9.13975,238192
9.14602,253533
9.15227,259713
9.15852,281098
9.16478,329867
9.17103,351918
9.17728,365057
9.18355,386345
9.18980,479493
9.19605,551249
9.20232,497228
9.20857,356716
9.21482,237475
9.22108,171223
9.22733,156589
9.23358,173150
9.23985,227525
9.24610,303339
9.25235,334338
9.25862,283329
9.26487,206440
9.27112,151349
9.27738,120164
9.28363,121401
9.28988,137917
9.29615,192138
9.30240,283714
9.30865,376358
9.31492,449409
9.32117,517919
9.32742,556028
9.33368,556022
9.33993,675975
9.34618,996094
9.35243,1268498
9.35870,1162661
9.36495,772329
9.37120,499777
9.37747,853955
9.38372,2833022
9.38997,7746875
9.39623,1.41818E+07
9.40248,1.820818E+07
9.40873,1.590303E+07
9.41500,8680309
9.42125,2697693
9.42750,972880
9.43377,1827705
9.44002,6025257
9.44627,1.455385E+07
9.45253,2.527183E+07
9.45878,3.081248E+07
9.46503,2.722673E+07
9.47130,1.590896E+07
9.47755,5259898
9.48380,1358507
9.49007,469864
9.49632,271984
9.50257,219203
9.50883,208183
9.51508,213093
9.52133,222872
9.52760,225613
9.53385,216807
9.54010,216752
9.54637,211847
9.55262,202443
9.55887,192441
9.56512,194346
9.57138,208625
9.57763,229299
9.58388,230104
9.59015,227452
9.59640,220347
9.60265,220149
9.60892,251127
9.61517,276784
9.62142,264028
9.62768,216819
9.63393,179730
9.64018,151365
9.64645,141025
9.65270,153565
9.65895,151702
9.66522,143885
9.67147,179320
9.67772,501175
9.68398,1964817
9.69023,5935105
9.69648,1.213755E+07
9.70275,1.682637E+07
9.70900,1.612381E+07
9.71525,1.040777E+07
9.72152,4130710
9.72777,2189289
9.73402,2880527
9.74028,3862905
9.74653,3527319
9.75278,2230035
9.75905,980190
9.76530,393885
9.77155,236772
9.77780,203114
9.78407,185803
9.79032,166409
9.79657,148012
9.80283,140899
9.80908,135770
9.81533,134088
9.82160,130375
9.82785,131495
9.83410,139611
9.84037,163037
9.84662,232995
9.85287,498426
9.85913,1696576
9.86538,4994947
9.87163,1.091357E+07
9.87790,1.56777E+07
9.88415,1.492711E+07
9.89040,9249282
9.89667,3812997
9.90292,1866806
9.90917,1900198
9.91543,1991339
9.92168,1419609
9.92793,728123
9.93420,324502
9.94045,207377
9.94670,200738
9.95297,240616
9.95922,371828
9.96547,646118
9.97173,999726
9.97798,1378174
9.98423,1688719
9.99050,1902530
9.99675,1966839
10.00300,1564931
10.00925,938969
10.01552,512056
10.02177,336236
10.02802,255425
10.03428,216539
10.04053,200004
10.04678,202613
10.05305,204008
10.05930,197406
10.06555,168427
10.07182,151668
10.07807,148059
10.08432,162101
10.09058,184013
10.09683,218718
10.10308,230013
10.10935,224509
10.11560,207830
10.12185,192421
10.12812,170791
10.13437,151764
10.14062,143656
10.14688,143705
10.15313,144169
10.15938,137329
10.16565,140964
10.17190,147460
10.17815,165820
10.18442,180727
10.19067,186960
10.19692,176178
10.20318,156365
10.20943,156013
10.21568,213500
10.22193,375252
10.22820,649290
10.23445,1021526
10.24070,1325348
10.24697,1373869
10.25322,1016136
10.25947,654605
10.26573,397077
10.27198,299682
10.27823,245191
10.28450,269510
10.29075,332733
10.29700,416051
10.30327,383218
10.30952,304108
10.31577,235426
10.32203,217497
10.32828,240174
10.33453,305003
10.34080,360556
10.34705,320823
10.35330,242755
10.35957,193231
10.36582,184663
10.37207,179509
10.37833,164276
10.38458,143681
10.39083,133637
10.39710,122855
10.40335,112147
10.40960,110609
10.41587,117975
10.42212,128412
10.42837,139919
10.43463,150519
10.44088,150135
10.44713,155369
10.45338,167933
10.45965,171117
10.46590,175677
10.47215,200021
10.47842,279113
10.48467,405992
10.49092,502030
10.49718,437397
10.50343,302476
10.50968,196819
10.51595,143451
10.52220,143611
10.52845,176158
10.53472,236364
10.54097,281485
10.54722,280797
10.55348,243705
10.55973,191190
10.56598,183960
10.57225,192761
10.57850,209899
10.58475,225282
10.59102,225463
10.59727,286666
10.60352,735343
10.60978,2435372
10.61603,6341982
10.62228,1.158361E+07
10.62855,1.536058E+07
10.63480,1.341245E+07
10.64105,7340459
10.64732,2449098
10.65357,685241
10.65982,262909
10.66607,197786
10.67233,206729
10.67858,213961
10.68483,229513
10.69110,206301
10.69735,172259
10.70360,152119
10.70987,153614
10.71612,156569
10.72237,177070
10.72863,185310
10.73488,184321
10.74113,181592
10.74740,170702
10.75365,163460
10.75990,154389
10.76617,160597
10.77242,165933
10.77867,168663
10.78493,173122
10.79118,176553
10.79743,173117
10.80370,187649
10.80995,234688
10.81620,324758
10.82247,377301
10.82872,351483
10.83497,254288
10.84123,183857
10.84748,158861
10.85373,164850
10.86000,180956
10.86625,186444
10.87250,189116
10.87877,181988
10.88502,175589
10.89127,176686
10.89752,183111
10.90378,198648
10.91003,193101
10.91628,181681
10.92255,173121
10.92880,178087
10.93505,185047
10.94132,178655
10.94757,163482
10.95382,177364
10.96008,298847
10.96633,892331
10.97258,2881724
10.97885,7548524
10.98510,1.516232E+07
10.99135,2.278015E+07
10.99762,2.544858E+07
11.00387,2.012177E+07
11.01012,9807808
11.01638,2825447
11.02263,657306
11.02888,286408
11.03515,277762
11.04140,313433
11.04765,320676
11.05392,357326
11.06017,404379
11.06642,387510
11.07268,327315
11.07893,235502
11.08518,176428
11.09145,160787
11.09770,175547
11.10395,188592
11.11020,191639
11.11647,193566
11.12272,198913
11.12897,228591
11.13523,249596
11.14148,249060
11.14773,258752
11.15400,311932
11.16025,475010
11.16650,670398
11.17277,768331
11.17902,651924
11.18527,441542
11.19153,267244
11.19778,199883
11.20403,211983
11.21030,249346
11.21655,284518
11.22280,292618
11.22907,278489
11.23532,258564
11.24157,233014
11.24783,245137
11.25408,264736
11.26033,271028
11.26660,255727
11.27285,253767
11.27910,287592
11.28537,302707
11.29162,283764
11.29787,232587
11.30413,196091
11.31038,206337
11.31663,309569
11.32290,524516
11.32915,780499
11.33540,849538
11.34165,669964
11.34792,388590
11.35417,218743
11.36042,163579
11.36668,156503
11.37293,156893
11.37918,151989
11.38545,142425
11.39170,138565
11.39795,141722
11.40422,143182
11.41047,151127
11.41672,151747
11.42298,147789
11.42923,165357
11.43548,236171
11.44175,405080
11.44800,665230
11.45425,857928
11.46052,796716
11.46677,567835
11.47302,352310
11.47928,244008
11.48553,211111
11.49178,193106
11.49805,175869
11.50430,172485
11.51055,162722
11.51682,154504
11.52307,143002
11.52932,143548
11.53558,154466
11.54183,164238
11.54808,176788
11.55433,164884
11.56060,150075
11.56685,139819
11.57310,134775
11.57937,138086
11.58562,142011
11.59187,146156
11.59813,147040
11.60438,148464
11.61063,150047
11.61690,153758
11.62315,156788
11.62940,153893
11.63567,161163
11.64192,165663
11.64817,184956
11.65443,211506
11.66068,238596
11.66693,230760
11.67320,199008
11.67945,165676
11.68570,151710
11.69197,152028
11.69822,169666
11.70447,212473
11.71073,268724
11.71698,326799
11.72323,346349
11.72950,317001
11.73575,262190
11.74200,222478
11.74827,190306
11.75452,174398
11.76077,181106
11.76702,199760
11.77328,234157
11.77953,244603
11.78578,252617
11.79205,261448
11.79830,272843
11.80455,267090
11.81082,257369
11.81707,249659
11.82332,263482
11.82958,374687
11.83583,557168
11.84208,742993
11.84835,715594
11.85460,533362
11.86085,359267
11.86712,260390
11.87337,236303
11.87962,276474
11.88588,374155
11.89213,497713
11.89838,571656
11.90465,523733
11.91090,401605
11.91715,316015
11.92342,264552
11.92967,254819
11.93592,330384
11.94218,622075
11.94843,1405577
11.95468,2977599
11.96095,5090007
11.96720,6969520
11.97345,6425629
11.97972,4064287
11.98597,1684721
11.99222,675261
11.99847,465656
12.00473,471464
12.01098,481058
12.01723,458075
12.02350,420651
12.02975,457573
12.03600,630979
12.04227,947267
12.04852,1393805
12.05477,1741288
12.06103,1699358
12.06728,1306031
12.07353,841786
12.07980,582084
12.08605,498616
12.09230,479874
12.09857,482326
12.10482,440439
12.11107,364632
12.11733,307242
12.12358,263996
12.12983,249130
12.13610,247358
12.14235,234804
12.14860,217867
12.15487,202426
12.16112,198189
12.16737,206787
12.17363,219714
12.17988,240490
12.18613,289014
12.19240,360940
12.19865,483568
12.20490,641243
12.21115,887987
12.21742,1110101
12.22367,1211636
12.22992,1089124
12.23618,856489
12.24243,668814
12.24868,728644
12.25495,1033523
12.26120,1523686
12.26745,1996383
12.27372,2203667
12.27997,2000938
12.28622,1421995
12.29248,835619
12.29873,462316
12.30498,315537
12.31125,256601
12.31750,220675
12.32375,208249
12.33002,198638
12.33627,226325
12.34252,267497
12.34878,331661
12.35503,395030
12.36128,421323
12.36755,392930
12.37380,357714
12.38005,373320
12.38632,434071
12.39257,497842
12.39882,460369
12.40508,361908
12.41133,294981
12.41758,265619
12.42383,264997
12.43010,297348
12.43635,348131
12.44260,361619
12.44887,326388
12.45512,290816
12.46137,264005
12.46763,281479
12.47388,373623
12.48013,584857
12.48640,904155
12.49265,1175755
12.49890,1231764
12.50517,1001528
12.51142,616456
12.51767,354640
12.52393,240812
12.53018,230726
12.53643,264661
12.54270,338167
12.54895,379527
12.55520,351482
12.56147,311657
12.56772,350566
12.57397,562738
12.58023,1047589
12.58648,1797188
12.59273,2446995
12.59900,2480616
12.60525,2150892
12.61150,2126398
12.61777,2822560
12.62402,3973488
12.63027,5618802
12.63653,7562885
12.64278,1.035751E+07
12.64903,1.420101E+07
12.65528,1.948553E+07
12.66155,2.509161E+07
12.66780,3.005219E+07
12.67405,3.24138E+07
12.68032,3.065641E+07
12.68657,2.357916E+07
12.69282,9910802
12.69908,2215457
12.70533,692833
12.71158,590699
12.71785,702740
12.72410,787142
12.73035,844653
12.73662,924695
12.74287,1016175
12.74912,1000496
12.75538,810103
12.76163,660143
12.76788,527900
12.77415,462300
12.78040,420196
12.78665,403310
12.79292,398794
12.79917,388612
12.80542,354794
12.81168,336945
12.81793,359551
12.82418,417827
12.83045,469346
12.83670,464888
12.84295,418831
12.84922,366393
12.85547,345872
12.86172,351754
12.86797,351261
12.87423,353475
12.88048,404060
12.88673,559391
12.89300,839589
12.89925,1078334
12.90550,1130650
12.91177,1000558
12.91802,798298
12.92427,639035
12.93053,449128
12.93678,326119
12.94303,265122
12.94930,240031
12.95555,230703
12.96180,223628
12.96807,204531
12.97432,205715
12.98057,208809
12.98683,229256
12.99308,247593
12.99933,279858
13.00560,308176
13.01185,352457
13.01810,410576
13.02437,510653
13.03062,676203
13.03687,834927
13.04313,832903
13.04938,627685
13.05563,459382
13.06190,440925
13.06815,745198
13.07440,1559348
13.08065,2891357
13.08692,4014156
13.09317,4110056
13.09942,2981218
13.10568,1519628
13.11193,760267
13.11818,488262
13.12445,377146
13.13070,335709
13.13695,327785
13.14322,323661
13.14947,324808
13.15572,314436
13.16198,313022
13.16823,293097
13.17448,260602
13.18075,234879
13.18700,218143
13.19325,205714
13.19952,203230
13.20577,202248
13.21202,205331
13.21828,219102
13.22453,249922
13.23078,283039
13.23705,311455
13.24330,339057
13.24955,332908
13.25582,338335
13.26207,343157
13.26832,327663
13.27458,316416
13.28083,299950
13.28708,327003
13.29335,391377
13.29960,540639
13.30585,740684
13.31210,904890
13.31837,852949
13.32462,600799
13.33087,383196
13.33713,284659
13.34338,274545
13.34963,294812
13.35590,302123
13.36215,290047
13.36840,281833
13.37467,273252
13.38092,248484
13.38717,231690
13.39343,220702
13.39968,208556
13.40593,214109
13.41220,215981
13.41845,238066
13.42470,258135
13.43097,300238
13.43722,351153
13.44347,372367
13.44973,360390
13.45598,303078
13.46223,263919
13.46850,237812
13.47475,237973
13.48100,236118
13.48727,248413
13.49352,242425
13.49977,253341
13.50603,249439
13.51228,265204
13.51853,283803
13.52478,318435
13.53105,357190
13.53730,420885
13.54355,580876
13.54982,873057
13.55607,1190344
13.56232,1238349
13.56858,957664
13.57483,641929
13.58108,480095
13.58735,495597
13.59360,667258
13.59985,920351
13.60612,1078079
13.61237,1009100
13.61862,771526
13.62488,594890
13.63113,479389
13.63738,410287
13.64365,365872
13.64990,356324
13.65615,353115
13.66242,348284
13.66867,335925
13.67492,335272
13.68118,361827
13.68743,400423
13.69368,426201
13.69995,416381
13.70620,378010
13.71245,336593
13.71872,307048
13.72497,306511
13.73122,310414
13.73748,319976
13.74373,342206
13.74998,428955
13.75623,689582
13.76250,1059429
13.76875,1396012
13.77500,1389543
13.78127,963024
13.78752,579918
13.79377,515488
13.80003,843601
13.80628,1805005
13.81253,3515194
13.81880,6441984
13.82505,1.091533E+07
13.83130,1.67141E+07
13.83757,2.186916E+07
13.84382,2.189823E+07
13.85007,1.412171E+07
13.85633,5126482
13.86258,1174245
13.86883,418223
13.87510,328654
13.88135,472332
13.88760,870992
13.89387,1752950
13.90012,3670662
13.90637,6629108
13.91263,9932023
13.91888,1.127494E+07
13.92513,9595857
13.93140,5408041
13.93765,1825173
13.94390,545380
13.95017,262995
13.95642,223900
13.96267,221676
13.96892,218224
13.97518,220210
13.98143,220225
13.98768,230752
13.99395,242305
14.00020,264855
14.00645,305985
14.01272,348298
14.01897,351517
14.02522,305152
14.03148,234619
14.03773,190173
14.04398,170683
14.05025,182393
14.05650,200624
14.06275,236316
14.06902,268765
14.07527,299081
14.08152,295817
14.08778,267721
14.09403,245613
14.10028,218663
14.10655,196378
14.11280,186110
14.11905,188423
14.12532,195584
14.13157,194424
14.13782,177941
14.14408,168045
14.15033,164030
14.15658,165793
14.16285,180585
14.16910,172470
14.17535,162786
14.18162,148899
14.18787,153173
14.19412,166497
14.20037,182732
14.20663,211846
14.21288,281410
14.21913,404391
14.22540,562496
14.23165,654962
14.23790,598624
14.24417,435628
14.25042,298101
14.25667,256158
14.26293,313751
14.26918,490807
14.27543,764458
14.28170,901405
14.28795,761477
14.29420,497098
14.30047,360571
14.30672,304234
14.31297,298386
14.31923,371388
14.32548,492778
14.33173,536236
14.33800,461977
14.34425,361895
14.35050,262577
14.35677,235076
14.36302,222939
14.36927,216763
14.37553,229111
14.38178,246209
14.38803,278231
14.39430,362372
14.40055,563326
14.40680,1100655
14.41305,2340984
14.41932,4199684
14.42557,5718392
14.43182,5234510
14.43808,3718991
14.44433,2179343
14.45058,1371515
14.45685,1080218
14.46310,1007589
14.46935,1087070
14.47562,1220984
14.48187,1329028
14.48812,1212348
14.49438,942550
14.50063,574787
14.50688,381036
14.51315,309196
14.51940,314643
14.52565,364557
14.53192,373282
14.53817,340733
14.54442,298258
14.55068,268352
14.55693,261216
14.56318,268979
14.56945,283843
14.57570,281109
14.58195,263663
14.58822,244244
14.59447,229663
14.60072,231600
14.60698,251516
14.61323,259953
14.61948,258591
14.62575,252815
14.63200,271184
14.63825,343647
14.64450,470085
14.65077,556704
14.65702,545494
14.66327,456427
14.66953,392834
14.67578,338658
14.68203,338738
14.68830,383715
14.69455,474242
14.70080,602966
14.70707,665815
14.71332,666383
14.71957,741898
14.72583,1026234
14.73208,1601989
14.73833,2184214
14.74460,2717657
14.75085,2603692
14.75710,2593118
14.76337,2437365
14.76962,1972421
14.77587,1197350
14.78213,599405
14.78838,359053
14.79463,316122
14.80090,341591
14.80715,381416
14.81340,405197
14.81967,382878
14.82592,302879
14.83217,243519
14.83843,205776
14.84468,192118
14.85093,212441
14.85718,262241
14.86345,319005
14.86970,364880
14.87595,360364
14.88222,325790
14.88847,281346
14.89472,255885
14.90098,261617
14.90723,326713
14.91348,481679
14.91975,662125
14.92600,758181
14.93225,755629
14.93852,650125
14.94477,510357
14.95102,453998
14.95728,528687
14.96353,868263
14.96978,1515062
14.97605,2358876
14.98230,2939006
14.98855,2508197
14.99482,1595184
15.00107,829663
15.00732,457679
15.01358,341746
15.01983,310619
15.02608,292589
15.03235,292682
15.03860,310180
15.04485,332122
15.05112,360864
15.05737,403167
15.06362,389892
15.06987,377827
15.07613,365386
15.08238,358988
15.08863,399438
15.09490,462688
15.10115,516971
15.10740,553556
15.11367,585231
15.11992,671504
15.12617,804811
15.13243,973297
15.13868,1146291
15.14493,1289180
15.15120,1487577
15.15745,1986114
15.16370,3354524
15.16997,6339228
15.17622,8638936
15.18247,8063250
15.18873,4947285
15.19498,2354944
15.20123,960534
15.20750,458346
15.21375,323942
15.22000,247162
15.22627,215025
15.23252,212803
15.23877,216562
15.24503,231633
15.25128,248333
15.25753,271259
15.26380,289480
15.27005,279612
15.27630,268248
15.28257,245501
15.28882,240905
15.29507,239345
15.30132,226452
15.30758,241764
15.31383,271582
15.32008,329077
15.32635,389333
15.33260,385654
15.33885,331826
15.34512,278472
15.35137,239560
15.35762,238066
15.36388,248620
15.37013,255533
15.37638,237062
15.38265,215638
15.38890,201958
15.39515,199117
15.40142,187915
15.40767,193517
15.41392,207459
15.42018,250684
15.42643,316999
15.43268,431185
15.43895,526276
15.44520,631517
15.45145,764307
15.45772,833202
15.46397,745760
15.47022,563040
15.47648,406884
15.48273,293840
15.48898,243411
15.49525,238670
15.50150,294467
15.50775,401717
15.51400,751417
15.52027,1614245
15.52652,3412664
15.53277,5786630
15.53903,8342113
15.54528,1.133659E+07
15.55153,1.47559E+07
15.55780,1.900703E+07
15.56405,1.983241E+07
15.57030,1.33966E+07
15.57657,4911506
15.58282,1316022
15.58907,583558
15.59533,469199
15.60158,454716
15.60783,457603
15.61410,445508
15.62035,424251
15.62660,415670
15.63287,412376
15.63912,404358
15.64537,362027
15.65163,323005
15.65788,289909
15.66413,280553
15.67040,285886
15.67665,312620
15.68290,337093
15.68917,346716
15.69542,351347
15.70167,346008
15.70793,333741
15.71418,304070
15.72043,289658
15.72668,286452
15.73295,283029
15.73920,294525
15.74545,311496
15.75172,305710
15.75797,287076
15.76422,249385
15.77048,216645
15.77673,193393
15.78298,188463
15.78925,198188
15.79550,207184
15.80175,211181
15.80802,216313
15.81427,217631
15.82052,240578
15.82678,274156
15.83303,338396
15.83928,456539
15.84555,626735
15.85180,702491
15.85805,584621
15.86432,391965
15.87057,281443
15.87682,250619
15.88308,253670
15.88933,258796
15.89558,252311
15.90185,233436
15.90810,208644
15.91435,202086
15.92062,199097
15.92687,198444
15.93312,200524
15.93938,205899
15.94563,215186
15.95188,267589
15.95813,380643
15.96440,511597
15.97065,575699
15.97690,506928
15.98317,358630
15.98942,236951
15.99567,188438
16.00193,194469
16.00818,248216
16.01443,341644
16.02070,464301
16.02695,604501
16.03320,742860
16.03947,984148
16.04572,1488787
16.05197,1942953
16.05823,1985497
16.06448,1474825
16.07073,1016141
16.07700,949012
16.08325,1319235
16.08950,1616649
16.09577,1670790
16.10202,1401679
16.10827,1253881
16.11453,1531901
16.12078,2346607
16.12703,3196826
16.13330,3422075
16.13955,2324769
16.14580,1192977
16.15207,593536
16.15832,391421
16.16457,345569
16.17082,344744
16.17708,331409
16.18333,327730
16.18958,382810
16.19585,461246
16.20210,491189
16.20835,462960
16.21462,435262
16.22087,629044
16.22712,1307934
16.23338,2386248
16.23963,3295421
16.24588,3021959
16.25215,1955313
16.25840,923596
16.26465,463155
16.27092,312914
16.27717,275082
16.28342,288481
16.28968,357302
16.29593,562232
16.30218,999276
16.30845,1440503
16.31470,1502553
16.32095,1114360
16.32722,655003
16.33347,378831
16.33972,269447
16.34598,245357
16.35223,243008
16.35848,243190
16.36475,238838
16.37100,227427
16.37725,214526
16.38352,205879
16.38977,189992
16.39602,190271
16.40227,193449
16.40853,207648
16.41478,205850
16.42103,222863
16.42730,262533
16.43355,379279
16.43980,616237
16.44607,999195
16.45232,1204495
16.45857,1108766
16.46483,893375
16.47108,739777
16.47733,614426
16.48360,510406
16.48985,420845
16.49610,366113
16.50237,365577
16.50862,391386
16.51487,481907
16.52113,565488
16.52738,632690
16.53363,645014
16.53990,585186
16.54615,542188
16.55240,492350
16.55867,444134
16.56492,404711
16.57117,361966
16.57743,348034
16.58368,355844
16.58993,363905
16.59620,362534
16.60245,360182
16.60870,369000
16.61495,373347
16.62122,394821
16.62747,408745
16.63372,438268
16.63998,466487
16.64623,501318
16.65248,506803
16.65875,477904
16.66500,427623
16.67125,387673
16.67752,379337
16.68377,388029
16.69002,392867
16.69628,382224
16.70253,344640
16.70878,318119
16.71505,286068
16.72130,285697
16.72755,296372
16.73382,309747
16.74007,320635
16.74632,323837
16.75258,341399
16.75883,372405
16.76508,462020
16.77135,653263
16.77760,892892
16.78385,1132668
16.79012,1285448
16.79637,1499362
16.80262,2230606
16.80888,3148836
16.81513,4178769
16.82138,5608403
16.82765,7676139
16.83390,1.023859E+07
16.84015,1.300607E+07
16.84640,1.424221E+07
16.85267,1.418706E+07
16.85892,1.001072E+07
16.86517,6523065
16.87143,4289630
16.87768,3251868
16.88393,3011839
16.89020,2759759
16.89645,2570184
16.90270,2300333
16.90897,2134532
16.91522,2080017
16.92147,2303810
16.92773,2791331
16.93398,3315407
16.94023,3659553
16.94650,3580734
16.95275,3287726
16.95900,2951580
16.96527,2577734
16.97152,2122463
16.97777,1614547
16.98403,1288742
16.99028,1102889
16.99653,1128376
17.00280,1674565
17.00905,3477002
17.01530,7259050
17.02157,1.412874E+07
17.02782,2.228103E+07
17.03407,3.050797E+07
17.04033,3.447211E+07
17.04658,3.980599E+07
17.05283,4.673533E+07
17.05908,5.22535E+07
17.06535,5.33664E+07
17.07160,5.15709E+07
17.07785,4.760581E+07
17.08412,4.355579E+07
17.09037,3.989254E+07
17.09662,3.841532E+07
17.10288,3.772982E+07
17.10913,3.693628E+07
17.11538,4.040448E+07
17.12165,4.442869E+07
17.12790,1.55791E+07
17.13415,1.364749E+07
17.14042,1.261725E+07
17.14667,1.184112E+07
17.15292,1.353138E+07
17.15918,2.108827E+07
17.16543,3.154097E+07
17.17168,4.21838E+07
17.17795,5.030116E+07
17.18420,5.270145E+07
17.19045,5.101914E+07
17.19672,3.574471E+07
17.20297,1.024033E+07
17.20922,4054175
17.21548,4725572
17.22173,6111330
17.22798,7873526
17.23425,1.143356E+07
17.24050,1.811788E+07
17.24675,2.972765E+07
17.25302,4.37276E+07
17.25927,5.169287E+07
17.26552,5.449339E+07
17.27177,5.357503E+07
17.27803,4.522977E+07
17.28428,1.924445E+07
17.29053,1.041659E+07
17.29680,1.388637E+07
17.30305,1.858897E+07
17.30930,1.95907E+07
17.31557,1.533121E+07
17.32182,7921423
17.32807,3108716
17.33433,1544830
17.34058,1140106
17.34683,1042708
17.35310,970503
17.35935,905248
17.36560,882959
17.37187,849830
17.37812,836555
17.38437,866902
17.39063,900498
17.39688,1003763
17.40313,1110590
17.40940,1255259
17.41565,1338336
17.42190,1285206
17.42817,1189628
17.43442,1248286
17.44067,1667688
17.44693,2688808
17.45318,4300734
17.45943,5482668
17.46570,5603426
17.47195,4124272
17.47820,2321645
17.48447,1196143
17.49072,846294
17.49697,779535
17.50322,840372
17.50948,989048
17.51573,1190040
17.52198,1348185
17.52825,1360410
17.53450,1132624
17.54075,906508
17.54702,822390
17.55327,949008
17.55952,1424327
17.56578,2761276
17.57203,6012332
17.57828,1.115392E+07
17.58455,1.46136E+07
17.59080,1.50286E+07
17.59705,9610281
17.60332,4415655
17.60957,1895052
17.61582,1332921
17.62208,1543364
17.62833,1671459
17.63458,1472137
17.64085,1056097
17.64710,767878
17.65335,631648
17.65962,571123
17.66587,525488
17.67212,533406
17.67838,552907
17.68463,565739
17.69088,603966
17.69715,626793
17.70340,631930
17.70965,613096
17.71590,559260
17.72217,505771
17.72842,469433
17.73467,489463
17.74093,514635
17.74718,554757
17.75343,582256
17.75970,623980
17.76595,705402
17.77220,881978
17.77847,1166053
17.78472,1554847
17.79097,2213765
17.79723,3277800
17.80348,4522550
17.80973,5420563
17.81600,5466092
17.82225,4486114
17.82850,3203607
17.83477,2238690
17.84102,1736229
17.84727,1399247
17.85353,1426985
17.85978,2412779
17.86603,5453837
17.87230,1.104497E+07
17.87855,1.618981E+07
17.88480,1.725754E+07
17.89107,1.261293E+07
17.89732,5616930
17.90357,2009730
17.90983,941358
17.91608,662879
17.92233,602666
17.92860,576120
17.93485,549136
17.94110,530395
17.94735,535841
17.95362,551707
17.95987,586100
17.96612,616449
17.97238,605852
17.97863,614432
17.98488,653129
17.99115,723973
17.99740,881470
18.00365,1033274
18.00992,1169882
18.01617,1102638
18.02242,928474
18.02868,737863
18.03493,625107
18.04118,563037
18.04745,524320
18.05370,485328
18.05995,441213
18.06622,404969
18.07247,392915
18.07872,393700
18.08498,441466
18.09123,491275
18.09748,563542
18.10375,585981
18.11000,556642
18.11625,574069
18.12252,738014
18.12877,1292660
18.13502,2626438
18.14128,4475559
18.14753,5729178
18.15378,5098028
18.16003,3025438
18.16630,1442620
18.17255,754027
18.17880,530019
18.18507,455231
18.19132,411284
18.19757,404512
18.20383,425068
18.21008,502237
18.21633,613926
18.22260,636476
18.22885,589012
18.23510,490129
18.24137,421270
18.24762,390654
18.25387,405488
18.26013,439566
18.26638,504202
18.27263,590251
18.27890,729360
18.28515,1052158
18.29140,1681863
18.29767,2503896
18.30392,2995828
18.31017,2816472
18.31643,1969449
18.32268,1191333
18.32893,727155
18.33520,461434
18.34145,353515
18.34770,316502
18.35397,321397
18.36022,331346
18.36647,329512
18.37272,339149
18.37898,388515
18.38523,462474
18.39148,532520
18.39775,544008
18.40400,502050
18.41025,461061
18.41652,431731
18.42277,402617
18.42902,373092
18.43528,339922
18.44153,320730
18.44778,309195
18.45405,299856
18.46030,311055
18.46655,326487
18.47282,337628
18.47907,328328
18.48532,309346
18.49158,287373
18.49783,280897
18.50408,276027
18.51035,282994
18.51660,292628
18.52285,298752
18.52912,295044
18.53537,308263
18.54162,306323
18.54788,310264
18.55413,317940
18.56038,320347
18.56665,314977
18.57290,305385
18.57915,293017
18.58542,280577
18.59167,296823
18.59792,308620
18.60417,353369
18.61043,417614
18.61668,448510
18.62293,430952
18.62920,391092
18.63545,371872
18.64170,362635
18.64797,358344
18.65422,338250
18.66047,323218
18.66673,304740
18.67298,307456
18.67923,301956
18.68550,288026
18.69175,294106
18.69800,313581
18.70427,356934
18.71052,409392
18.71677,440510
18.72303,409476
18.72928,364817
18.73553,310574
18.74180,293010
18.74805,288389
18.75430,285598
18.76057,281463
18.76682,281258
18.77307,279270
18.77933,276156
18.78558,272526
18.79183,264456
18.79810,261972
18.80435,274135
18.81060,284531
18.81685,287557
18.82312,288653
18.82937,292142
18.83562,288393
18.84188,289773
18.84813,281632
18.85438,310566
18.86065,395501
18.86690,652211
18.87315,1458971
18.87942,3681733
18.88567,8586508
18.89192,1.545393E+07
18.89818,2.316185E+07
18.90443,2.532135E+07
18.91068,1.880409E+07
18.91695,9028219
18.92320,3189776
18.92945,1104062
18.93572,688876
18.94197,681179
18.94822,654234
18.95448,536404
18.96073,396649
18.96698,315301
18.97325,275897
18.97950,263983
18.98575,259203
18.99202,266882
18.99827,276473
19.00452,299090
19.01078,309871
19.01703,317094
19.02328,299390
19.02953,295862
19.03580,295088
19.04205,311026
19.04830,320144
19.05457,315438
19.06082,290829
19.06707,265182
19.07333,266097
19.07958,283675
19.08583,302923
19.09210,327225
19.09835,346758
19.10460,338642
19.11087,329139
19.11712,303692
19.12337,306368
19.12963,314618
19.13588,334425
19.14213,336876
19.14840,324533
19.15465,295157
19.16090,278827
19.16717,261417
19.17342,250436
19.17967,249352
19.18593,261318
19.19218,266373
19.19843,258622
19.20470,256399
19.21095,257770
19.21720,242957
19.22347,242378
19.22972,231421
19.23597,230867
19.24223,224493
19.24848,225775
19.25473,222430
19.26098,217548
19.26725,214261
19.27350,213793
19.27975,222987
19.28602,230568
19.29227,237208
19.29852,235011
19.30478,224142
19.31103,224416
19.31728,212245
19.32355,207981
19.32980,214735
19.33605,235426
19.34232,261889
19.34857,286406
19.35482,306500
19.36108,301694
19.36733,285169
19.37358,273949
19.37985,275944
19.38610,279703
19.39235,293939
19.39862,308744
19.40487,343783
19.41112,323813
19.41738,280175
19.42363,259583
19.42988,241257
19.43615,234572
19.44240,239960
19.44865,244222
19.45492,241890
19.46117,233162
19.46742,225397
19.47367,220974
19.47993,221948
19.48618,229480
19.49243,243927
19.49870,254211
19.50495,274254
19.51120,289586
19.51747,309497
19.52372,301070
19.52997,289869
19.53623,282016
19.54248,302071
19.54873,342712
19.55500,366218
19.56125,353621
19.56750,309570
19.57377,268988
19.58002,240541
19.58627,232497
19.59253,222442
19.59878,224365
19.60503,223420
19.61130,216153
19.61755,215656
19.62380,228839
19.63007,253096
19.63632,277887
19.64257,284608
19.64883,266977
19.65508,254518
19.66133,262795
19.66760,305000
19.67385,371067
19.68010,435161
19.68637,422956
19.69262,387256
19.69887,355282
19.70512,332915
19.71138,325557
19.71763,311339
19.72388,294513
19.73015,282549
19.73640,283890
19.74265,280726
19.74892,280731
19.75517,266077
19.76142,262755
19.76768,268217
19.77393,269022
19.78018,258394
19.78645,259083
19.79270,272353
19.79895,304842
19.80522,309568
19.81147,292414
19.81772,263993
19.82398,237686
19.83023,216220
19.83648,208982
19.84275,208149
19.84900,228712
19.85525,265460
19.86152,305168
19.86777,329378
19.87402,337747
19.88028,299683
19.88653,269134
19.89278,286740
19.89905,391837
19.90530,804158
19.91155,2010168
19.91780,4150663
19.92407,6587497
19.93032,7331756
19.93657,5649136
19.94283,2973003
19.94908,1175053
19.95533,515567
19.96160,405232
19.96785,476891
19.97410,584973
19.98037,646183
19.98662,636158
19.99287,535482
19.99913,427272
20.00538,345621
20.01163,294385
20.01790,272021
20.02415,266100
20.03040,255369
20.03667,266992
20.04292,278434
20.04917,298281
20.05543,300047
20.06168,295307
20.06793,261905
20.07420,243766
20.08045,246042
20.08670,258788
20.09297,283222
20.09922,284891
20.10547,282793
20.11173,260048
20.11798,239278
20.12423,232679
20.13050,232179
20.13675,227488
20.14300,225562
20.14925,227097
20.15552,231563
20.16177,240315
20.16802,242423
20.17428,245342
20.18053,245511
20.18678,244832
20.19305,257942
20.19930,280460
20.20555,319430
20.21182,395623
20.21807,490863
20.22432,609405
20.23058,708737
20.23683,687524
20.24308,603076
20.24935,464561
20.25560,348125
20.26185,287258
20.26812,263385
20.27437,256032
20.28062,279322
20.28688,388493
20.29313,688816
20.29938,1046680
20.30565,1342788
20.31190,1291700
20.31815,979385
20.32442,593554
20.33067,389400
20.33692,320021
20.34318,318538
20.34943,326152
20.35568,315600
20.36193,289803
20.36820,270219
20.37445,265676
20.38070,262282
20.38697,260489
20.39322,259040
20.39947,249726
20.40573,258377
20.41198,292351
20.41823,388712
20.42450,602717
20.43075,1062219
20.43700,1789239
20.44327,2342999
20.44952,2302709
20.45577,1672635
20.46203,998204
20.46828,671583
20.47453,653476
20.48080,820164
20.48705,948511
20.49330,854859
20.49957,624218
20.50582,461946
20.51207,362704
20.51833,337017
20.52458,334886
20.53083,342370
20.53710,361639
20.54335,427717
20.54960,531132
20.55587,632945
20.56212,601981
20.56837,492481
20.57463,409955
20.58088,391076
20.58713,422124
20.59338,478600
20.59965,517631
20.60590,492627
20.61215,435538
20.61842,376590
20.62467,318384
20.63092,277907
20.63718,260428
20.64343,259203
20.64968,266403
20.65595,269266
20.66220,283776
20.66845,286657
20.67472,289569
20.68097,281785
20.68722,279060
20.69348,264908
20.69973,293112
20.70598,407914
20.71225,677434
20.71850,1096672
20.72475,1334658
20.73102,1363723
20.73727,1008385
20.74352,678286
20.74978,520994
20.75603,577477
20.76228,842412
20.76855,1096342
20.77480,1152444
20.78105,969567
20.78732,712293
20.79357,535268
20.79982,433749
20.80607,370633
20.81233,324622
20.81858,298286
20.82483,301466
20.83110,323097
20.83735,336029
20.84360,343938
20.84987,343792
20.85612,330024
20.86237,315074
20.86863,305740
20.87488,303212
20.88113,309170
20.88740,325164
20.89365,341946
20.89990,346190
20.90617,358290
20.91242,379670
20.91867,391201
20.92493,429541
20.93118,603885
20.93743,984515
20.94370,1457233
20.94995,1732414
20.95620,1520205
20.96247,1175642
20.96872,842011
20.97497,662992
20.98123,536108
20.98748,432276
20.99373,410560
21.00000,491287
21.00625,685797
21.01250,862107
21.01875,893440
21.02502,752627
21.03127,564817
21.03752,448960
21.04378,418359
21.05003,385195
21.05628,365461
21.06255,345691
21.06880,368072
21.07505,413037
21.08132,432942
21.08757,416660
21.09382,367677
21.10008,318177
21.10633,295315
21.11258,284941
21.11885,288488
21.12510,284603
21.13135,273293
21.13762,267755
21.14387,273645
21.15012,265432
21.15638,269916
21.16263,286881
21.16888,299708
21.17515,305227
21.18140,305984
21.18765,295282
21.19392,297144
21.20017,293683
21.20642,302963
21.21268,315035
21.21893,310101
21.22518,298564
21.23145,287330
21.23770,296501
21.24395,302571
21.25020,312229
21.25647,297125
21.26272,300287
21.26897,302278
21.27523,350349
21.28148,402615
21.28773,435468
21.29400,421917
21.30025,370922
21.30650,316999
21.31277,294336
21.31902,285834
21.32527,295323
21.33153,303259
21.33778,294804
21.34403,300080
21.35030,306799
21.35655,343429
21.36280,427315
21.36907,485125
21.37532,539491
21.38157,474432
21.38783,388421
21.39408,322285
21.40033,309415
21.40660,333324
21.41285,391981
21.41910,476976
21.42537,561017
21.43162,579836
21.43787,517821
21.44413,468322
21.45038,467007
21.45663,578242
21.46288,715243
21.46915,744009
21.47540,685611
21.48165,522962
21.48792,423275
21.49417,392957
21.50042,399136
21.50668,373807
21.51293,334005
21.51918,284674
21.52545,259619
21.53170,260774
21.53795,261708
21.54422,260908
21.55047,253113
21.55672,254040
21.56298,261527
21.56923,298944
21.57548,317452
21.58175,329808
21.58800,339261
21.59425,342173
21.60052,352245
21.60677,325995
21.61302,284795
21.61928,251306
21.62553,225764
21.63178,211856
21.63805,209768
21.64430,202607
21.65055,200017
21.65682,203814
21.66307,215044
21.66932,228960
21.67557,244830
21.68183,262374
21.68808,266529
21.69433,242384
21.70060,229664
21.70685,212922
21.71310,208463
21.71937,210802
21.72562,220621
21.73187,231173
21.73813,230406
21.74438,230795
21.75063,237570
21.75690,247823
21.76315,239917
21.76940,236574
21.77567,250483
21.78192,271256
21.78817,295815
21.79443,320862
21.80068,348765
21.80693,372958
21.81320,381862
21.81945,390802
21.82570,338544
21.83197,302014
21.83822,280419
21.84447,275354
21.85073,293131
21.85698,325539
21.86323,380089
21.86950,410058
21.87575,402230
21.88200,329507
21.88827,293020
21.89452,298481
21.90077,379444
21.90702,514944
21.91328,587804
21.91953,557389
21.92578,480019
21.93205,392737
21.93830,370424
21.94455,350541
21.95082,311281
21.95707,272176
21.96332,261133
21.96958,283784
21.97583,327241
21.98208,371912
21.98835,374236
21.99460,347826
22.00085,308026
22.00712,288562
22.01337,282427
22.01962,276855
22.02588,287068
22.03213,307587
22.03838,351008
22.04465,398321
22.05090,420400
22.05715,445689
22.06342,491830
22.06967,539548
22.07592,603902
22.08218,599257
22.08843,525906
22.09468,414858
22.10095,362793
22.10720,339445
22.11345,326995
22.11970,334943
22.12597,335725
22.13222,320765
22.13847,298672
22.14473,279195
22.15098,274740
22.15723,279312
22.16350,291892
22.16975,300476
22.17600,306621
22.18227,315197
22.18852,310712
22.19477,303252
22.20103,280397
22.20728,272246
22.21353,259159
22.21980,251802
22.22605,261475
22.23230,290400
22.23857,328064
22.24482,432336
22.25107,569024
22.25733,722154
22.26358,768557
22.26983,674480
22.27610,585708
22.28235,522463
22.28860,504341
22.29487,499563
22.30112,462240
22.30737,406373
22.31363,348542
22.31988,313426
22.32613,300318
22.33238,306010
22.33865,329447
22.34490,441304
22.35115,754459
22.35742,1423411
22.36367,2316724
22.36992,2567876
22.37618,2078948
22.38243,1277878
22.38868,675341
22.39495,408958
22.40120,321059
22.40745,311997
22.41372,313040
22.41997,330431
22.42622,346043
22.43248,392716
22.43873,478353
22.44498,591356
22.45125,799354
22.45750,1030843
22.46375,1142393
22.47002,1021704
22.47627,745735
22.48252,533617
22.48878,440124
22.49503,402442
22.50128,377708
22.50755,356764
22.51380,331770
22.52005,326585
22.52632,364780
22.53257,496833
22.53882,736140
22.54508,1068220
22.55133,1221430
22.55758,1153445
22.56383,916020
22.57010,653617
22.57635,498687
22.58260,420641
22.58887,383279
22.59512,342616
22.60137,322575
22.60763,313253
22.61388,294466
22.62013,293098
22.62640,290508
22.63265,300558
22.63890,306274
22.64517,309343
22.65142,311832
22.65767,311532
22.66393,327205
22.67018,366120
22.67643,409825
22.68270,426215
22.68895,420344
22.69520,373821
22.70147,330611
22.70772,292952
22.71397,290344
22.72023,280699
22.72648,285913
22.73273,285662
22.73900,298831
22.74525,303370
22.75150,314186
22.75777,322190
22.76402,341792
22.77027,378201
22.77652,562455
22.78278,1331014
22.78903,3514611
22.79528,8439233
22.80155,1.52574E+07
22.80780,2.342421E+07
22.81405,2.452386E+07
22.82032,1.870486E+07
22.82657,9162006
22.83282,3226551
22.83908,1175763
22.84533,636540
22.85158,490502
22.85785,441413
22.86410,414123
22.87035,402095
22.87662,375447
22.88287,351863
22.88912,333658
22.89538,329595
22.90163,329482
22.90788,320596
22.91415,333668
22.92040,343003
22.92665,345476
22.93292,363416
22.93917,378927
22.94542,377308
22.95168,364659
22.95793,349795
22.96418,370624
22.97045,438400
22.97670,526387
22.98295,590458
22.98922,589942
22.99547,501189
23.00172,422062
23.00797,344375
23.01423,312367
23.02048,298131
23.02673,290020
23.03300,295229
23.03925,306168
23.04550,312508
23.05177,322842
23.05802,376940
23.06427,492252
23.07053,642443
23.07678,791392
23.08303,746578
23.08930,606993
23.09555,467773
23.10180,369443
23.10807,314408
23.11432,296485
23.12057,281361
23.12683,276068
23.13308,268808
23.13933,262841
23.14560,262121
23.15185,261041
23.15810,249628
23.16437,250929
23.17062,246656
23.17687,245526
23.18313,259991
23.18938,265202
23.19563,273779
23.20190,274769
23.20815,275036
23.21440,265636
23.22065,259148
23.22692,256638
23.23317,251948
23.23942,252726
23.24568,258181
23.25193,256196
23.25818,255842
23.26445,264448
23.27070,258709
23.27695,255146
23.28322,252617
23.28947,267807
23.29572,305511
23.30198,369278
23.30823,476201
23.31448,561936
23.32075,560243
23.32700,522203
23.33325,402723
23.33952,335918
23.34577,301899
23.35202,282859
23.35828,273538
23.36453,270029
23.37078,277739
23.37705,293580
23.38330,300633
23.38955,308719
23.39582,304286
23.40207,296076
23.40832,285149
23.41458,272970
23.42083,271106
23.42708,270313
23.43335,272678
23.43960,280975
23.44585,304667
23.45210,324729
23.45837,339871
23.46462,352573
23.47087,369614
23.47713,378209
23.48338,403830
23.48963,428544
23.49590,457561
23.50215,530038
23.50840,650445
23.51467,866490
23.52092,947643
23.52717,843864
23.53343,624676
23.53968,477039
23.54593,394380
23.55220,394778
23.55845,432482
23.56470,489818
23.57097,574081
23.57722,662635
23.58347,731656
23.58973,755540
23.59598,765501
23.60223,735923
23.60850,665904
23.61475,549205
23.62100,474409
23.62727,434237
23.63352,403493
23.63977,390396
23.64603,391243
23.65228,369579
23.65853,341615
23.66478,317533
23.67105,314419
23.67730,313656
23.68355,321902
23.68982,332017
23.69607,344387
23.70232,350310
23.70858,385412
23.71483,490626
23.72108,657418
23.72735,812795
23.73360,866076
23.73985,709508
23.74612,546720
23.75237,426637
23.75862,378813
23.76488,352068
23.77113,335663
23.77738,340576
23.78365,344568
23.78990,347001
23.79615,353502
23.80242,358486
23.80867,384144
23.81492,410506
23.82118,434499
23.82743,416770
23.83368,403050
23.83995,375224
23.84620,373227
23.85245,372184
23.85872,368236
23.86497,366732
23.87122,392912
23.87748,418524
23.88373,468719
23.88998,531630
23.89623,542415
23.90250,504537
23.90875,455956
23.91500,422035
23.92127,401658
23.92752,391470
23.93377,399083
23.94003,417439
23.94628,551519
23.95253,1024297
23.95880,2198758
23.96505,4455361
23.97130,8163788
23.97757,1.322951E+07
23.98382,1.982446E+07
23.99007,2.791875E+07
23.99633,3.517E+07
24.00258,3.714207E+07
24.00883,2.981407E+07
24.01510,1.812191E+07
24.02135,7683317
24.02760,3131749
24.03387,1632680
24.04012,1183552
24.04637,977671
24.05263,867627
24.05888,777903
24.06513,779400
24.07140,799649
24.07765,785122
24.08390,812547
24.09017,989969
24.09642,1663680
24.10267,3279631
24.10892,5752795
24.11518,7884084
24.12143,8475637
24.12768,7146295
24.13395,4297479
24.14020,2337004
24.14645,1254842
24.15272,837673
24.15897,690748
24.16522,655641
24.17148,711733
24.17773,853852
24.18398,1121848
24.19025,1617082
24.19650,2627577
24.20275,5188969
24.20902,1.055636E+07
24.21527,1.890475E+07
24.22152,2.937324E+07
24.22778,3.690488E+07
24.23403,4.380184E+07
24.24028,4.594035E+07
24.24655,4.671484E+07
24.25280,4.652955E+07
24.25905,4.519958E+07
24.26532,4.437472E+07
24.27157,4.371575E+07
24.27782,4.10999E+07
24.28408,1.257829E+07
24.29033,4634589
24.29658,3452886
24.30285,2997861
24.30910,2703414
24.31535,2620512
24.32160,2507713
24.32787,2537694
24.33412,2605656
24.34037,2646016
24.34663,2740539
24.35288,2758888
24.35913,2815152
24.36540,2860360
24.37165,2915583
24.37790,2932773
24.38417,2832216
24.39042,2621161
24.39667,2488581
24.40293,2303602
24.40918,2178737
24.41543,2098840
24.42170,2115505
24.42795,2213706
24.43420,2481117
24.44047,2787432
24.44672,2657305
24.45297,2428764
24.45923,2048495
24.46548,1655212
24.47173,1444828
24.47800,1321451
24.48425,1275233
24.49050,1235266
24.49677,1208760
24.50302,1139914
24.50927,1116275
24.51553,1107717
24.52178,1055723
24.52803,1032674
24.53428,987430
24.54055,961565
24.54680,939240
24.55305,890824
24.55932,865281
24.56557,885166
24.57182,927004
24.57808,971306
24.58433,1039842
24.59058,1026761
24.59685,924963
24.60310,831080
24.60935,730650
24.61562,663432
24.62187,607165
24.62812,602338
24.63438,573213
24.64063,559571
24.64688,520926
24.65315,499202
24.65940,487467
24.66565,474588
24.67192,471360
24.67817,471829
24.68442,500423
24.69068,502078
24.69693,514534
24.70318,535641
24.70945,555460
24.71570,548778
24.72195,503854
24.72822,472582
24.73447,430608
24.74072,405774
24.74698,396841
24.75323,407064
24.75948,427887
24.76573,455520
24.77200,475766
24.77825,466560
24.78450,440816
24.79077,385457
24.79702,360214
24.80327,332623
24.80953,325772
24.81578,325905
24.82203,313237
24.82830,309295
24.83455,296257
24.84080,283445
24.84707,288154
24.85332,285022
24.85957,286165
24.86583,296630
24.87208,314975
24.87833,346016
24.88460,399408
24.89085,446925
24.89710,459280
24.90337,436933
24.90962,416592
24.91587,437135
24.92213,476504
24.92838,496650
24.93463,531618
24.94090,635134
24.94715,848017
24.95340,1003788
24.95967,1011620
24.96592,865428
24.97217,643744
24.97842,474995
24.98468,385949
24.99093,336904
24.99718,317897
25.00345,312688
25.00970,307596
25.01595,304609
25.02222,305633
25.02847,313189
25.03472,329704
25.04098,331584
25.04723,322215
25.05348,316076
25.05975,305053
25.06600,289635
25.07225,288476
25.07852,285169
25.08477,289781
25.09102,291003
25.09728,279779
25.10353,283757
25.10978,281236
25.11605,276626
25.12230,298307
25.12855,314725
25.13482,316608
25.14107,311826
25.14732,288291
25.15358,270338
25.15983,265096
25.16608,275228
25.17235,314371
25.17860,397248
25.18485,495067
25.19110,523807
25.19737,488087
25.20362,400844
25.20987,321653
25.21613,274507
25.22238,255958
25.22863,234395
25.23490,238846
25.24115,233827
25.24740,234351
25.25367,230607
25.25992,232173
25.26617,239457
25.27243,257168
25.27868,304897
25.28493,394521
25.29120,477953
25.29745,546720
25.30370,492917
25.30997,403228
25.31622,321789
25.32247,276649
25.32873,255657
25.33498,245290
25.34123,243330
25.34750,243257
25.35375,246840
25.36000,236828
25.36627,240915
25.37252,242056
25.37877,242989
25.38503,243136
25.39128,257574
25.39753,285065
25.40380,324042
25.41005,358158
25.41630,344612
25.42255,322178
25.42882,295408
25.43507,280967
25.44132,275713
25.44758,269485
25.45383,256585
25.46008,250115
25.46635,244069
25.47260,246611
25.47885,281939
25.48512,334955
25.49137,442088
25.49762,541246
25.50388,594150
25.51013,589696
25.51638,501737
25.52265,455397
25.52890,498153
25.53515,647178
25.54142,769338
25.54767,787606
25.55392,661141
25.56018,474711
25.56643,348369
25.57268,276330
25.57895,251284
25.58520,240858
25.59145,249790
25.59772,253338
25.60397,260097
25.61022,255413
25.61648,246036
25.62273,241136
25.62898,230996
25.63523,219791
25.64150,221461
25.64775,214518
25.65400,208989
25.66027,211386
25.66652,208776
25.67277,213708
25.67903,207235
25.68528,213258
25.69153,211994
25.69780,214676
25.70405,210883
25.71030,205450
25.71657,205063
25.72282,216033
25.72907,215482
25.73533,225864
25.74158,238212
25.74783,239407
25.75410,234515
25.76035,225518
25.76660,212209
25.77287,211213
25.77912,207607
25.78537,208356
25.79163,205141
25.79788,201058
25.80413,194988
25.81040,190489
25.81665,187066
25.82290,189987
25.82917,190272
25.83542,194992
25.84167,191083
25.84793,190882
25.85418,201490
25.86043,196472
25.86668,201452
25.87295,193846
25.87920,185212
25.88545,189647
25.89172,188838
25.89797,189821
25.90422,193157
25.91048,190203
25.91673,192771
25.92298,206990
25.92925,218732
25.93550,224137
25.94175,228231
25.94802,220121
25.95427,206170
25.96052,201500
25.96678,203521
25.97303,206945
25.97928,204668
25.98555,205096
25.99180,206421
25.99805,199619
26.00432,195767
26.01057,196076
26.01682,195462
26.02308,195718
26.02933,195992
26.03558,199059
26.04185,203329
26.04810,199608
26.05435,202352
26.06062,200438
26.06687,193833
26.07312,196460
26.07937,189775
26.08563,187934
26.09188,186702
26.09813,186512
26.10440,188129
26.11065,185381
26.11690,187711
26.12317,181764
26.12942,184659
26.13567,182068
26.14193,180497
26.14818,182075
26.15443,184579
26.16070,188581
26.16695,193166
26.17320,194312
26.17947,198577
26.18572,194771
26.19197,190667
26.19823,186499
26.20448,190871
26.21073,191150
26.21700,188734
26.22325,189518
26.22950,194214
26.23577,191188
26.24202,183616
26.24827,190226
26.25453,183040
26.26078,184649
26.26703,186319
26.27330,192399
26.27955,187152
26.28580,187586
26.29207,185651
26.29832,188931
26.30457,190643
26.31082,190099
26.31708,191719
26.32333,190536
26.32958,192172
26.33585,198178
26.34210,194502
26.34835,208690
26.35462,227849
26.36087,257002
26.36712,313453
26.37338,401313
26.37963,452725
26.38588,427785
26.39215,361949
26.39840,288625
26.40465,241687
26.41092,223010
26.41717,215699
26.42342,213344
26.42968,212102
26.43593,215201
26.44218,201713
26.44845,203801
26.45470,208065
26.46095,211138
26.46722,209966
26.47347,211460
26.47972,210506
26.48598,217329
26.49223,208654
26.49848,210644
26.50475,206444
26.51100,207877
26.51725,220539
26.52350,231332
26.52977,255041
26.53602,251590
26.54227,245409
26.54853,234266
26.55478,220358
26.56103,214669
26.56730,210541
26.57355,203175
26.57980,204573
26.58607,208587
26.59232,216834
26.59857,224084
26.60483,232303
26.61108,250792
26.61733,260839
26.62360,253087
26.62985,239318
26.63610,223883
26.64237,223880
26.64862,236658
26.65487,262493
26.66113,304290
26.66738,336800
26.67363,344396
26.67990,333213
26.68615,315798
26.69240,333190
26.69867,345480
26.70492,349302
26.71117,322841
26.71743,284230
26.72368,252902
26.72993,242225
26.73620,238028
26.74245,242604
26.74870,268546
26.75495,363633
26.76122,452527
26.76747,555380
26.77372,558948
26.77998,495026
26.78623,423896
26.79248,399748
26.79875,395162
26.80500,377217
26.81125,364152
26.81752,379657
26.82377,480457
26.83002,673761
26.83628,857688
26.84253,861715
26.84878,746376
26.85505,532012
26.86130,391152
26.86755,349897
26.87382,358750
26.88007,424442
26.88632,531094
26.89258,680734
26.89883,1109744
26.90508,2452068
26.91135,5492259
26.91760,1.107907E+07
26.92385,1.738749E+07
26.93012,2.467116E+07
26.93637,3.161983E+07
26.94262,3.102934E+07
26.94888,2.10328E+07
26.95513,8043817
26.96138,3516162
26.96763,1939664
26.97390,1245509
26.98015,816692
26.98640,595074
26.99267,495179
26.99892,486643
27.00517,636889
27.01143,1033481
27.01768,1742293
27.02393,2234622
27.03020,2112819
27.03645,1631530
27.04270,1068052
27.04897,705016
27.05522,573711
27.06147,529863
27.06773,505485
27.07398,457340
27.08023,409868
27.08650,386763
27.09275,359691
27.09900,348180
27.10527,335849
27.11152,334185
27.11777,369218
27.12403,479961
27.13028,612724
27.13653,734310
27.14280,771427
27.14905,658140
27.15530,515998
27.16157,411852
27.16782,373511
27.17407,374592
27.18032,390372
27.18658,365068
27.19283,340039
27.19908,345061
27.20535,339096
27.21160,349194
27.21785,334248
27.22412,340089
27.23037,332024
27.23662,335869
27.24288,342553
27.24913,355611
27.25538,359745
27.26165,347881
27.26790,338853
27.27415,319018
27.28042,308798
27.28667,304056
27.29292,303031
27.29918,301730
27.30543,311684
27.31168,300806
27.31795,310779
27.32420,306752
27.33045,305683
27.33672,308714
27.34297,307808
27.34922,321037
27.35548,333572
27.36173,333927
27.36798,330842
27.37425,324363
27.38050,313741
27.38675,325860
27.39302,344892
27.39927,383665
27.40552,441409
27.41177,467887
27.41803,426938
27.42428,386628
27.43053,351010
27.43680,326139
27.44305,317690
27.44930,301604
27.45557,297290
27.46182,280756
27.46807,288025
27.47433,295762
27.48058,297134
27.48683,298768
27.49310,283712
27.49935,288247
27.50560,277528
27.51187,281569
27.51812,270387
27.52437,282535
27.53063,285296
27.53688,296435
27.54313,288196
27.54940,284348
27.55565,283740
27.56190,281377
27.56817,274132
27.57442,283251
27.58067,273705
27.58693,279184
27.59318,283307
27.59943,275823
27.60570,283387
27.61195,277335
27.61820,278143
27.62445,280509
27.63072,283589
27.63697,286755
27.64322,286665
27.64948,290196
27.65573,281527
27.66198,287506
27.66825,281016
27.67450,293888
27.68075,284955
27.68702,299318
27.69327,289407
27.69952,299399
27.70578,300837
27.71203,311773
27.71828,330981
27.72455,322855
27.73080,320870
27.73705,311285
27.74332,303644
27.74957,310309
27.75582,317529
27.76208,320053
27.76833,321261
27.77458,308982
27.78085,308735
27.78710,305172
27.79335,291741
27.79962,289752
27.80587,301649
27.81212,287898
27.81838,289815
27.82463,295837
27.83088,302116
27.83713,308602
27.84340,322136
27.84965,347831
27.85590,370469
27.86217,390250
27.86842,399521
27.87467,390645
27.88093,352709
27.88718,330184
27.89343,323921
27.89970,316371
27.90595,311371
27.91220,312844
27.91847,313829
27.92472,304544
27.93097,302455
27.93723,302384
27.94348,296493
27.94973,313167
27.95600,312523
27.96225,313441
27.96850,304473
27.97477,318867
27.98102,325930
27.98727,326870
27.99353,331631
27.99978,327113
28.00603,330785
28.01230,314769
28.01855,310383
28.02480,315304
28.03107,308179
28.03732,310498
28.04357,306238
28.04983,310665
28.05608,303371
28.06233,301444
28.06858,301863
28.07485,300300
28.08110,303547
28.08735,303508
28.09362,307929
28.09987,313355
28.10612,314837
28.11238,308508
28.11863,309057
28.12488,317637
28.13115,312283
28.13740,316730
28.14365,320819
28.14992,304589
28.15617,317195
28.16242,319664
28.16868,319558
28.17493,310923
28.18118,310152
28.18745,308960
28.19370,313787
28.19995,313107
28.20622,313492
28.21247,318272
28.21872,329696
28.22498,329952
28.23123,321918
28.23748,333273
28.24375,322750
28.25000,333812
28.25625,343804
28.26252,338753
28.26877,351130
28.27502,351817
28.28127,362758
28.28753,376722
28.29378,382592
28.30003,378972
28.30630,394049
28.31255,398837
28.31880,391770
28.32507,425276
28.33132,439020
28.33757,427522
28.34383,440391
28.35008,433752
28.35633,437251
28.36260,458484
28.36885,458519
28.37510,452096
28.38137,440541
28.38762,436962
28.39387,444429
28.40013,429204
28.40638,436488
28.41263,419086
28.41890,406932
28.42515,414195
28.43140,397584
28.43767,391597
28.44392,376668
28.45017,373417
28.45643,363298
28.46268,373878
28.46893,354106
28.47520,360641
28.48145,341578
28.48770,353616
28.49397,352244
28.50022,344233
28.50647,338644
28.51272,347271
28.51898,349071
28.52523,332161
28.53148,330955
28.53775,332161
28.54400,327948
28.55025,336600
28.55652,333874
28.56277,321551
28.56902,317449
28.57528,330931
28.58153,319232
28.58778,334071
28.59405,325029
28.60030,332462
28.60655,314509
28.61282,324419
28.61907,326668
28.62532,317695
28.63158,318330
28.63783,326425
28.64408,313039
28.65035,315872
28.65660,324956
28.66285,327538
28.66912,316178
28.67537,320930
28.68162,313576
28.68788,313857
28.69413,314924
28.70038,308014
28.70665,313842
28.71290,313895
28.71915,325204
28.72540,311375
28.73167,315986
28.73792,320934
28.74417,324313
28.75043,318723
28.75668,310199
28.76293,318214
28.76920,317917
28.77545,307128
28.78170,319960
28.78797,316230
28.79422,307740
28.80047,308755
28.80673,319658
28.81298,314137
28.81923,317802
28.82550,318333
28.83175,316392
28.83800,318207
28.84427,307742
28.85052,305950
28.85677,309566
28.86303,307208
28.86928,301885
28.87553,310371
28.88180,315595
28.88805,312639
28.89430,301726
28.90057,302035
28.90682,315416
28.91307,314183
28.91933,302397
28.92558,301155
28.93183,308058
28.93810,314664
28.94435,310540
28.95060,313892
28.95685,314250
28.96312,311019
28.96937,304574
28.97562,299861
28.98188,311350
28.98813,300013
28.99438,316335
29.00065,302625
29.00690,313739
29.01315,303908
29.01942,314997
29.02567,310128
29.03192,313377
29.03818,297485
29.04443,299624
29.05068,297302
29.05695,309213
29.06320,297866
29.06945,306146
29.07572,308146
29.08197,308154
29.08822,295894
29.09448,297447
29.10073,294575
29.10698,301200
29.11325,310775
29.11950,300229
29.12575,306824
29.13202,293979
29.13827,297663
29.14452,307390
29.15078,291429
29.15703,304057
29.16328,309797
29.16953,307631
29.17580,292797
29.18205,296148
29.18830,305094
29.19457,308672
29.20082,299161
29.20707,305852
29.21333,314842
29.21958,315307
29.22583,332363
29.23210,342125
29.23835,351303
29.24460,352979
29.25087,345290
29.25712,326502
29.26337,321917
29.26963,312144
29.27588,307010
29.28213,316417
29.28840,302148
29.29465,302629
29.30090,307800
29.30717,311180
29.31342,299037
29.31967,307381
29.32593,299131
29.33218,309299
29.33843,309037
29.34470,292171
29.35095,304730
29.35720,297590
29.36347,305358
29.36972,294463
29.37597,305145
29.38223,293647
29.38848,297420
29.39473,305662
29.40098,303983
29.40725,295975
29.41350,296983
29.41975,303095
29.42602,303764
29.43227,294008
29.43852,290725
29.44478,293547
29.45103,297667
29.45728,304883
29.46355,299120
29.46980,294914
29.47605,299862
29.48232,290258
29.48857,304291
29.49482,292042
29.50108,287643
29.50733,288665
29.51358,298180
29.51985,289435
29.52610,293305
29.53235,299419
29.53862,285890
29.54487,298694
29.55112,298452
29.55738,304201
29.56363,288851
29.56988,287472
29.57615,299376
29.58240,297607
29.58865,290055
29.59492,287024
29.60117,296648
29.60742,295761
29.61367,306271
29.61993,298625
29.62618,283565
29.63243,287182
29.63870,295158
29.64495,294938
29.65120,301294
29.65747,288455
29.66372,293659
29.66997,289540
29.67623,286669
29.68248,297439
29.68873,294339
29.69500,288417
29.70125,291748
29.70750,285213
29.71377,294134
29.72002,288649
29.72627,297637
29.73253,282235
29.73878,283419
29.74503,283842
29.75130,285990
29.75755,294838
29.76380,286188
29.77007,284848
29.77632,290910
29.78257,291703
29.78883,294259
29.79508,288424
29.80133,281504
29.80760,294434
29.81385,282803
29.82010,291571
29.82635,294515
29.83262,290729
29.83887,294499
29.84512,282619
29.85138,284797
29.85763,286169
29.86388,284476
29.87015,294661
29.87640,281055
29.88265,283697
29.88892,282265
29.89517,287653
29.90142,284184
29.90768,290854
29.91393,283696
29.92018,290767
29.92645,280993
29.93270,281105
29.93895,286554
29.94522,291287
29.95147,280433
29.95772,277087
29.96398,279722
29.97023,276906
29.97648,275789
29.98275,289208
29.98900,277933
29.99525,285915
30.00152,293302
30.00777,288158
30.01402,276515
30.02028,280222
30.02653,291364
30.03278,276295
30.03905,287788
30.04530,284812
30.05155,277239
30.05780,276466
30.06407,282920
30.07032,283719
30.07657,276610
30.08283,276866
30.08908,285609
30.09533,272165
30.10160,283144
30.10785,281044
30.11410,275207
30.12037,277727
30.12662,287113
30.13287,273046
30.13913,284034
30.14538,276043
30.15163,272145
30.15790,275901
30.16415,288318
30.17040,286090
30.17667,278720
30.18292,277961
30.18917,272145
30.19543,276162
30.20168,273554
30.20793,281641
30.21420,279905
30.22045,275160
30.22670,284666
30.23297,268104
30.23922,282627
30.24547,284079
30.25173,281077
30.25798,282343
30.26423,280689
30.27048,281407
30.27675,281404
30.28300,272800
30.28925,270844
30.29552,281993
30.30177,278484
30.30802,271089
30.31428,269619
30.32053,273849
30.32678,278924
30.33305,264453
30.33930,281418
30.34555,281258
30.35182,267110
30.35807,269490
30.36432,278663
30.37058,273016
30.37683,267530
30.38308,280788
30.38935,278512
30.39560,265652
30.40185,278885
30.40812,266429
30.41437,272935
30.42062,269199
30.42688,282638
30.43313,272152
30.43938,276633
30.44565,268108
30.45190,266252
30.45815,266700
30.46442,275050
30.47067,273072
30.47692,269927
30.48317,275808
30.48943,272431
30.49568,279574
30.50193,269230
30.50820,278336
30.51445,278416
30.52070,263880
30.52697,278536
30.53322,275454
30.53947,263835
30.54573,265939
30.55198,273744
30.55823,273349
30.56450,260405
30.57075,261877
30.57700,272928
30.58327,268055
30.58952,273287
30.59577,263141
30.60203,262717
30.60828,275724
30.61453,275176
30.62080,264763
30.62705,273801
30.63330,261860
30.63957,260406
30.64582,269907
30.65207,267154
30.65833,267738
30.66458,272124
30.67083,285174
30.67710,284274
30.68335,286306
30.68960,289355
30.69587,292252
30.70212,291768
30.70837,293248
30.71462,293396
30.72088,287792
30.72713,270578
30.73338,276698
30.73965,278237
30.74590,276361
30.75215,274872
30.75842,272122
30.76467,276800
30.77092,261851
30.77718,274122
30.78343,264132
30.78968,265315
30.79595,275302
30.80220,271848
30.80845,268784
30.81472,270125
30.82097,267982
30.82722,272306
30.83348,267839
30.83973,269995
30.84598,272260
30.85225,270629
30.85850,273234
30.86475,263291
30.87102,272006
30.87727,274339
30.88352,261834
30.88978,271041
30.89603,260273
30.90228,268468
30.90855,260132
30.91480,271916
30.92105,269819
30.92730,267225
30.93357,271948
30.93982,269276
30.94607,260255
30.95233,259955
30.95858,263798
30.96483,272667
30.97110,271571
30.97735,267839
30.98360,268684
30.98987,268816
30.99612,279427
31.00237,287279
31.00863,276914
31.01488,283710
31.02113,272593
31.02740,277272
31.03365,273718
31.03990,274985
31.04617,271564
31.05242,267437
31.05867,266122
31.06493,258553
31.07118,267003
31.07743,261464
31.08370,258091
31.08995,266590
31.09620,267234
31.10247,253581
31.10872,256736
31.11497,257059
31.12123,265062
31.12748,264521
31.13373,256129
31.14000,257163
31.14625,258113
31.15250,251486
31.15875,258575
31.16502,266050
31.17127,264984
31.17752,264225
31.18378,254591
31.19003,261028
31.19628,253692
31.20255,262711
31.20880,253476
31.21505,266083
31.22132,261870
31.22757,266011
31.23382,262371
31.24008,261620
31.24633,263769
31.25258,254342
31.25885,262142
31.26510,259516
31.27135,250865
31.27762,259171
31.28387,257224
31.29012,265263
31.29638,263106
31.30263,255565
31.30888,257271
31.31515,251548
31.32140,254928
31.32765,259262
31.33392,266659
31.34017,266714
31.34642,267364
31.35268,268212
31.35893,267824
31.36518,266123
31.37143,271012
31.37770,259955
31.38395,262323
31.39020,269743
31.39647,270258
31.40272,260660
31.40897,258088
31.41523,260007
31.42148,263120
31.42773,264425
31.43400,258116
31.44025,256705
31.44650,257044
31.45277,269539
31.45902,254037
31.46527,255385
31.47153,260332
31.47778,249551
31.48403,263870
31.49030,255600
31.49655,258517
31.50280,258597
31.50907,260743
31.51532,259407
31.52157,261586
31.52783,256598
31.53408,258099
31.54033,260446
31.54660,252752
31.55285,250753
31.55910,252296
31.56537,246814
31.57162,245896
31.57787,248545
31.58413,246296
31.59038,246094
31.59663,260789
31.60288,254278
31.60915,247495
31.61540,248699
31.62165,258977
31.62792,253591
31.63417,245977
31.64042,257001
31.64668,250129
31.65293,249236
31.65918,248118
31.66545,256364
31.67170,252911
31.67795,248425
31.68422,249926
31.69047,246306
31.69672,244440
31.70298,255081
31.70923,245996
31.71548,253178
31.72175,246701
31.72800,247384
31.73425,254200
31.74052,245170
31.74677,252556
31.75302,246167
31.75928,254857
31.76553,252004
31.77178,251309
31.77805,253057
31.78430,251337
31.79055,242597
31.79682,245931
31.80307,243638
31.80932,252454
31.81557,242986
31.82183,254379
31.82808,245242
31.83433,245501
31.84060,242065
31.84685,242600
31.85310,249149
31.85937,242650
31.86562,250493
31.87187,244698
31.87813,249743
31.88438,244984
31.89063,243834
31.89690,249692
31.90315,242718
31.90940,251311
31.91567,240595
31.92192,253582
31.92817,245867
31.93443,237719
31.94068,241342
31.94693,247660
31.95320,245630
31.95945,241504
31.96570,244766
31.97197,244788
31.97822,248957
31.98447,237453
31.99073,238324
31.99698,240338
32.00323,244920
32.00950,239221
32.01575,247623
32.02200,244279
32.02827,241591
32.03452,240172
32.04077,239698
32.04702,248414
32.05328,246376
32.05953,239027
32.06578,238796
32.07205,238511
32.07830,245269
32.08455,240371
32.09082,244455
32.09707,249317
32.10332,247068
32.10958,244580
32.11583,238100
32.12208,247058
32.12835,245845
32.13460,235617
32.14085,235797
32.14712,242575
32.15337,238716
32.15962,235659
32.16588,239401
32.17213,250407
32.17838,241970
32.18465,240073
32.19090,236966
32.19715,245252
32.20342,244483
32.20967,238741
32.21592,237416
32.22218,235477
32.22843,247239
32.23468,233332
32.24095,232755
32.24720,239494
32.25345,236502
32.25970,238704
32.26597,247242
32.27222,240537
32.27847,235624
32.28473,245063
32.29098,237093
32.29723,230566
32.30350,243012
32.30975,245763
32.31600,238488
32.32227,243036
32.32852,240212
32.33477,241914
32.34103,230426
32.34728,244016
32.35353,238538
32.35980,236697
32.36605,232411
32.37230,236052
32.37857,240760
32.38482,232977
32.39107,228195
32.39733,239314
32.40358,231561
32.40983,232140
32.41610,236862
32.42235,242299
32.42860,243697
32.43487,237054
32.44112,234356
32.44737,234787
32.45363,233485
32.45988,234160
32.46613,235092
32.47238,230410
32.47865,243230
32.48490,234687
32.49115,240483
32.49742,241691
32.50367,231764
32.50992,233899
32.51618,239865
32.52243,235794
32.52868,231779
32.53495,232897
32.54120,239481
32.54745,242812
32.55372,243498
32.55997,241585
32.56622,233374
32.57248,231460
32.57873,231241
32.58498,238862
32.59125,232580
32.59750,234789
32.60375,236092
32.61002,232410
32.61627,239543
32.62252,238872
32.62878,233466
32.63503,236445
32.64128,233154
32.64755,227565
32.65380,237490
32.66005,229297
32.66632,234238
32.67257,227829
32.67882,231936
32.68508,235828
32.69133,236728
32.69758,239412
32.70383,237579
32.71010,230210
32.71635,234117
32.72260,230540
32.72887,227141
32.73512,231521
32.74137,236080
32.74763,232186
32.75388,228145
32.76013,226293
32.76640,229579
32.77265,231292
32.77890,234542
32.78517,235403
32.79142,230200
32.79767,234790
32.80393,232507
32.81018,226323
32.81643,227609
32.82270,233777
32.82895,236869
32.83520,226456
32.84147,229232
32.84772,233114
32.85397,232816
32.86023,234830
32.86648,225405
32.87273,233960
32.87900,237534
32.88525,226904
32.89150,224194
32.89777,223694
32.90402,230373
32.91027,233224
32.91652,230880
32.92278,238296
32.92903,234691
32.93528,225909
32.94155,233220
32.94780,231342
32.95405,229926
32.96032,224262
32.96657,223818
32.97282,224254
32.97908,232822
32.98533,234802
32.99158,228766
32.99785,231601
33.00410,230604
33.01035,220436
33.01662,223892
33.02287,223767
33.02912,220732
33.03538,223584
33.04163,228739
33.04788,221772
33.05415,219861
33.06040,231878
33.06665,222402
33.07292,219134
33.07917,223654
33.08542,218959
33.09168,231475
33.09793,229967
33.10418,224467
33.11045,224207
33.11670,225077
33.12295,224924
33.12920,228223
33.13547,230670
33.14172,241644
33.14797,244210
33.15423,239894
33.16048,236524
33.16673,236362
33.17300,244585
33.17925,241087
33.18550,246219
33.19177,240187
33.19802,235371
33.20427,227874
33.21053,237226
33.21678,226304
33.22303,233671
33.22930,223714
33.23555,228587
33.24180,225754
33.24807,228161
33.25432,225880
33.26057,231939
33.26683,217653
33.27308,220784
33.27933,222049
33.28560,229683
33.29185,224680
33.29810,227582
33.30437,226242
33.31062,230877
33.31687,228920
33.32313,222885
33.32938,231516
33.33563,230110
33.34190,224122
33.34815,231766
33.35440,221948
33.36065,222997
33.36692,228270
33.37317,224071
33.37942,224013
33.38568,232105
33.39193,224573
33.39818,220321
33.40445,229252
33.41070,222139
33.41695,227300
33.42322,225263
33.42947,220150
33.43572,227624
33.44198,217275
33.44823,219824
33.45448,220405
33.46075,216823
33.46700,222742
33.47325,217480
33.47952,219659
33.48577,218512
33.49202,215299
33.49828,220341
33.50453,220549
33.51078,223645
33.51705,224880
33.52330,217840
33.52955,222734
33.53582,221322
33.54207,226698
33.54832,218041
33.55458,217674
33.56083,214753
33.56708,214969
33.57333,223497
33.57960,220609
33.58585,219262
33.59210,220067
33.59837,224326
33.60462,221345
33.61087,213843
33.61713,213902
33.62338,223449
33.62963,224222
33.63590,221492
33.64215,211728
33.64840,223061
33.65467,217532
33.66092,218539
33.66717,222255
33.67343,223992
33.67968,218044
33.68593,213257
33.69220,211960
33.69845,215923
33.70470,224951
33.71097,224801
33.71722,219460
33.72347,212275
33.72973,219604
33.73598,215690
33.74223,223273
33.74850,219072
33.75475,223589
33.76100,214217
33.76727,218637
33.77352,222785
33.77977,221357
33.78603,215229
33.79228,211531
33.79853,225094
33.80478,211785
33.81105,209471
33.81730,215343
33.82355,213024
33.82982,210006
33.83607,211470
33.84232,213574
33.84858,222381
33.85483,218646
33.86108,215640
33.86735,211087
33.87360,212026
33.87985,216219
33.88612,209166
33.89237,218085
33.89862,213574
33.90488,213147
33.91113,210392
33.91738,209006
33.92365,215980
33.92990,216649
33.93615,213415
33.94242,215273
33.94867,215875
33.95492,210322
33.96118,219210
33.96743,214689
33.97368,219689
33.97995,219362
33.98620,208219
33.99245,211573
33.99872,216201
34.00497,215494
34.01122,215063
34.01747,209495
34.02373,211165
34.02998,209186
34.03623,212070
34.04250,207852
34.04875,208840
34.05500,210198
34.06127,213013
34.06752,221356
34.07377,211951
34.08003,216562
34.08628,209206
34.09253,206455
34.09880,210844
34.10505,208634
34.11130,211413
34.11757,216244
34.12382,204581
34.13007,214346
34.13633,219432
34.14258,210318
34.14883,204551
34.15510,213850
34.16135,219414
34.16760,217636
34.17387,212536
34.18012,209372
34.18637,207143
34.19263,210229
34.19888,214015
34.20513,207181
34.21140,215247
34.21765,213837
34.22390,215823
34.23017,210294
34.23642,208539
34.24267,205352
34.24892,210412
34.25518,216019
34.26143,206885
34.26768,213678
34.27395,216809
34.28020,207712
34.28645,214073
34.29272,206401
34.29897,208890
34.30522,208372
34.31148,207634
34.31773,209795
34.32398,207868
34.33025,211184
34.33650,207933
34.34275,213708
34.34902,207862
34.35527,209037
34.36152,211412
34.36778,213825
34.37403,211670
34.38028,215347
34.38655,212583
34.39280,216124
34.39905,208268
34.40532,204571
34.41157,211128
34.41782,207955
34.42408,208274
34.43033,206652
34.43658,205216
34.44285,202197
34.44910,204666
34.45535,211946
34.46160,204790
34.46787,211716
34.47412,203948
34.48037,204012
34.48663,204220
34.49288,203112
34.49913,209913
34.50540,211734
34.51165,209701
34.51790,202447
34.52417,202384
34.53042,206078
34.53667,212944
34.54293,206404
34.54918,213502
34.55543,202848
34.56170,203492
34.56795,208907
34.57420,205324
34.58047,206718
34.58672,206313
34.59297,205748
34.59923,205729
34.60548,210209
34.61173,202313
34.61800,203688
34.62425,202761
34.63050,202682
34.63677,204903
34.64302,200065
34.64927,207700
34.65553,204533
34.66178,202710
34.66803,201572
34.67430,201478
34.68055,207157
34.68680,204221
34.69305,201917
34.69932,207899
34.70557,200698
34.71182,208680
34.71808,209072
34.72433,202179
34.73058,207021
34.73685,210770
34.74310,210162
34.74935,200935
34.75562,206872
34.76187,207017
34.76812,200350
34.77438,198732
34.78063,204426
34.78688,204962
34.79315,199343
34.79940,204696
34.80565,209044
34.81192,206748
34.81817,205384
34.82442,196900
34.83068,201898
34.83693,202095
34.84318,199573
34.84945,209440
34.85570,209918
34.86195,208874
34.86822,199431
34.87447,197677
34.88072,204202
34.88698,206543
34.89323,195755
34.89948,205809
34.90573,203133
34.91200,197010
34.91825,207962
34.92450,204769
34.93077,203903
34.93702,194810
34.94327,207615
34.94953,203186
34.95578,200273
34.96203,199014
34.96830,205889
34.97455,193829
34.98080,199068
34.98707,200982
34.99332,199630
34.99957,203228
35.00583,200263
35.01208,196191
35.01833,204168
35.02460,200631
35.03085,198444
35.03710,199110
35.04337,200623
35.04962,196762
35.05587,199906
35.06213,197690
35.06838,195575
35.07463,198383
35.08090,198717
35.08715,204931
35.09340,206348
35.09967,198093
35.10592,193762
35.11217,205018
35.11842,202866
35.12468,203287
35.13093,196836
35.13718,199784
35.14345,198343
35.14970,201324
35.15595,199832
35.16222,198589
35.16847,200625
35.17472,194748
35.18098,206241
35.18723,197033
35.19348,198017
35.19975,196584
35.20600,202550
35.21225,202320
35.21852,204480
35.22477,194083
35.23102,198560
35.23728,194498
35.24353,201955
35.24978,199381
35.25605,205887
35.26230,190695
35.26855,198909
35.27482,197335
35.28107,197532
35.28732,200211
35.29358,193331
35.29983,195046
35.30608,201848
35.31235,198116
35.31860,204689
35.32485,196238
35.33112,196818
35.33737,193479
35.34362,202642
35.34987,191678
35.35613,196957
35.36238,205464
35.36863,194074
35.37490,197185
35.38115,193659
35.38740,194346
35.39367,194893
35.39992,194129
35.40617,194552
35.41243,197605
35.41868,195238
35.42493,193266
35.43120,193436
35.43745,201433
35.44370,194189
35.44997,193509
35.45622,199220
35.46247,190422
35.46873,196760
35.47498,199121
35.48123,195269
35.48750,197308
35.49375,197092
35.50000,200048
35.50627,198525
35.51252,200630
35.51877,194842
35.52503,197429
35.53128,195584
35.53753,197654
35.54380,198371
35.55005,195826
35.55630,197565
35.56255,193534
35.56882,202565
35.57507,205989
35.58132,204288
35.58758,201540
35.59383,201636
35.60008,195811
35.60635,194357
35.61260,195487
35.61885,194227
35.62512,191371
35.63137,196879
35.63762,186719
35.64388,198362
35.65013,199274
35.65638,194829
35.66265,193300
35.66890,187902
35.67515,191329
35.68142,195271
35.68767,189723
35.69392,192353
35.70018,200328
35.70643,189008
35.71268,194176
35.71895,189384
35.72520,190266
35.73145,196799
35.73772,192985
35.74397,197125
35.75022,192903
35.75648,195373
35.76273,192294
35.76898,193416
35.77523,190778
35.78150,188356
35.78775,190998
35.79400,195204
35.80027,187304
35.80652,194752
35.81277,187985
35.81903,186509
35.82528,193939
35.83153,186985
35.83780,189719
35.84405,191206
35.85030,187969
35.85657,189305
35.86282,188555
35.86907,190420
35.87533,192010
35.88158,199932
35.88783,194023
35.89410,185946
35.90035,188661
35.90660,195107
35.91287,187724
35.91912,184357
35.92537,186797
35.93163,187261
35.93788,192741
35.94413,194297
35.95040,197231
35.95665,187060
35.96290,192517
35.96917,194658
35.97542,186095
35.98167,189285
35.98793,196102
35.99418,193073
36.00043,187419
36.00668,193712
36.01295,199558
36.01920,192872
36.02545,193891
36.03172,191654
36.03797,190962
36.04422,193717
36.05048,184559
36.05673,189442
36.06298,192055
36.06925,189118
36.07550,189474
36.08175,184637
36.08802,190480
36.09427,192800
36.10052,186712
36.10678,192478
36.11303,186871
36.11928,185095
36.12555,184625
36.13180,192531
36.13805,192771
36.14432,190131
36.15057,184543
36.15682,183276
36.16308,186388
36.16933,191549
36.17558,188686
36.18185,189981
36.18810,192197
36.19435,195398
36.20062,194898
36.20687,197981
36.21312,199534
36.21937,199075
36.22563,205384
36.23188,204461
36.23813,213954
36.24440,224654
36.25065,231699
36.25690,243090
36.26317,250718
36.26942,269004
36.27567,290236
36.28193,300269
36.28818,307020
36.29443,321551
36.30070,328852
36.30695,338102
36.31320,342717
36.31947,350300
36.32572,338636
36.33197,315455
36.33823,305387
36.34448,290514
36.35073,276496
36.35700,267216
36.36325,259112
36.36950,247868
36.37577,236990
36.38202,233215
36.38827,225469
36.39453,213983
36.40078,207133
36.40703,204857
36.41330,209706
36.41955,195945
36.42580,200245
36.43207,195932
36.43832,198321
36.44457,203729
36.45082,200934
36.45708,201175
36.46333,197497
36.46958,192581
36.47585,198052
36.48210,188573
36.48835,190457
36.49462,194512
36.50087,187660
36.50712,190279
36.51338,195819
36.51963,193457
36.52588,198107
36.53215,198931
36.53840,190422
36.54465,195722
36.55092,190555
36.55717,190257
36.56342,191961
36.56968,189516
36.57593,196076
36.58218,188439
36.58845,187412
36.59470,189450
36.60095,187399
36.60722,187110
36.61347,198451
36.61972,185216
36.62598,195711
36.63223,192128
36.63848,186761
36.64475,188581
36.65100,183087
36.65725,187212
36.66352,186328
36.66977,183979
36.67602,187320
36.68227,184747
36.68853,191075
36.69478,185864
36.70103,194287
36.70730,188704
36.71355,191537
36.71980,186421
36.72607,188162
36.73232,187285
36.73857,181219
36.74483,186273
36.75108,189145
36.75733,191453
36.76360,192890
36.76985,189067
36.77610,190738
36.78237,182032
36.78862,183154
36.79487,184087
36.80113,181677
36.80738,183591
36.81363,182181
36.81990,189793
36.82615,188728
36.83240,186292
36.83867,185995
36.84492,182633
36.85117,184448
36.85743,188588
36.86368,181996
36.86993,184302
36.87620,183370
36.88245,190234
36.88870,185551
36.89495,186637
36.90122,186212
36.90747,185347
36.91372,186586
36.91998,187694
36.92623,187156
36.93248,183861
36.93875,186513
36.94500,193102
36.95125,186992
36.95752,179010
36.96377,181233
36.97002,186915
36.97628,181022
36.98253,180537
36.98878,181961
36.99505,184234
37.00130,181601
37.00755,182460
37.01382,181325
37.02007,184195
37.02632,177067
37.03258,185559
37.03883,189313
37.04508,181391
37.05135,178589
37.05760,189612
37.06385,180896
37.07012,185759
37.07637,185332
37.08262,185269
37.08888,185748
37.09513,179166
37.10138,184717
37.10763,180831
37.11390,181351
37.12015,185262
37.12640,180472
37.13267,182812
37.13892,186616
37.14517,175918
37.15143,179727
37.15768,180047
37.16393,181098
37.17020,174354
37.17645,185381
37.18270,185242
37.18897,181001
37.19522,183379
37.20147,179547
37.20773,179392
37.21398,182272
37.22023,187139
37.22650,181159
37.23275,177773
37.23900,177810
37.24527,178104
37.25152,176971
37.25777,178901
37.26403,177927
37.27028,176828
37.27653,180931
37.28280,176451
37.28905,175457
37.29530,184672
37.30157,180883
37.30782,176300
37.31407,177297
37.32033,175246
37.32658,175767
37.33283,185424
37.33908,180675
37.34535,175816
37.35160,181295
37.35785,177174
37.36412,182559
37.37037,175910
37.37662,181679
37.38288,183794
37.38913,176646
37.39538,177216
37.40165,181723
37.40790,180728
37.41415,176808
37.42042,178516
37.42667,174917
37.43292,178059
37.43918,176278
37.44543,178905
37.45168,177268
37.45795,180381
37.46420,181336
37.47045,176700
37.47672,173409
37.48297,176750
37.48922,173871
