D:\MassHunter\GCMS\1\data\metastasis_lineages_3replicates_3runs_10302020\M_plate3_run2_10302020.D Sat Oct 31 07:58:57 2020
Start of data points
5.99338	210372
5.99963	209026
6.00588	217458
6.01213	235470
6.01840	228918
6.02465	233574
6.03090	247863
6.03717	249203
6.04342	249282
6.04967	233256
6.05593	233013
6.06218	246842
6.06843	252438
6.07470	245697
6.08095	232548
6.08720	228053
6.09347	372362
6.09972	783260
6.10597	1253541
6.11223	1264507
6.11848	870115
6.12473	511799
6.13100	329859
6.13725	283426
6.14350	277394
6.14977	398162
6.15602	685024
6.16227	1110884
6.16853	1308743
6.17478	1065686
6.18103	677589
6.18730	428753
6.19355	315881
6.19980	247585
6.20607	225418
6.21232	213802
6.21857	218217
6.22482	206333
6.23108	214878
6.23733	200908
6.24358	182382
6.24985	170879
6.25610	173574
6.26235	166903
6.26862	173097
6.27487	178225
6.28112	187051
6.28738	179087
6.29363	161841
6.29988	166387
6.30615	159650
6.31240	179704
6.31865	187842
6.32492	214119
6.33117	278102
6.33742	381504
6.34368	427443
6.34993	353415
6.35618	244274
6.36245	202184
6.36870	199448
6.37495	198364
6.38122	190046
6.38747	181310
6.39372	197642
6.39998	262633
6.40623	431784
6.41248	666245
6.41875	835010
6.42500	943194
6.43125	1015506
6.43750	897586
6.44377	590900
6.45002	388376
6.45627	495496
6.46253	1056995
6.46878	2300548
6.47503	4410528
6.48130	8401792
6.48755	1.582165E+07
6.49380	2.414743E+07
6.50007	2.731694E+07
6.50632	1.952397E+07
6.51257	6565726
6.51883	1277417
6.52508	404413
6.53133	342665
6.53760	381638
6.54385	485527
6.55010	651782
6.55637	1082398
6.56262	2011867
6.56887	2918929
6.57513	2660768
6.58138	1505096
6.58763	676711
6.59390	412910
6.60015	329514
6.60640	299541
6.61267	277819
6.61892	274011
6.62517	274606
6.63143	291938
6.63768	301272
6.64393	279088
6.65020	259364
6.65645	256412
6.66270	306955
6.66895	394884
6.67522	460052
6.68147	434335
6.68772	348816
6.69398	300573
6.70023	280445
6.70648	289760
6.71275	302255
6.71900	328410
6.72525	323562
6.73152	334454
6.73777	348964
6.74402	353259
6.75028	359401
6.75653	363831
6.76278	360777
6.76905	364251
6.77530	369097
6.78155	372955
6.78782	387145
6.79407	405468
6.80032	413268
6.80658	431510
6.81283	445376
6.81908	456957
6.82535	461262
6.83160	486474
6.83785	502877
6.84412	563337
6.85037	636213
6.85662	629011
6.86288	561799
6.86913	518239
6.87538	519505
6.88163	555168
6.88790	636434
6.89415	669399
6.90040	619195
6.90667	535756
6.91292	478444
6.91917	457073
6.92543	443478
6.93168	453170
6.93793	442950
6.94420	424780
6.95045	414868
6.95670	401850
6.96297	389449
6.96922	383110
6.97547	384917
6.98173	397351
6.98798	377525
6.99423	350232
7.00050	327434
7.00675	311021
7.01300	309647
7.01927	325625
7.02552	376583
7.03177	496885
7.03803	773814
7.04428	1412372
7.05053	2170583
7.05680	2325785
7.06305	1698048
7.06930	854907
7.07557	383253
7.08182	238738
7.08807	200955
7.09433	177304
7.10058	164350
7.10683	163124
7.11308	153466
7.11935	148628
7.12560	142868
7.13185	156309
7.13812	172495
7.14437	179236
7.15062	162552
7.15688	147073
7.16313	141130
7.16938	134473
7.17565	140090
7.18190	140504
7.18815	133294
7.19442	133065
7.20067	126001
7.20692	127390
7.21318	119965
7.21943	120267
7.22568	127338
7.23195	132209
7.23820	155381
7.24445	175854
7.25072	202578
7.25697	292988
7.26322	482727
7.26948	686670
7.27573	699419
7.28198	523176
7.28825	317804
7.29450	218548
7.30075	171634
7.30702	155261
7.31327	155162
7.31952	133339
7.32577	124058
7.33203	120830
7.33828	127374
7.34453	126731
7.35080	124212
7.35705	120094
7.36330	115182
7.36957	113668
7.37582	118821
7.38207	135786
7.38833	161543
7.39458	168735
7.40083	164001
7.40710	152456
7.41335	179172
7.41960	270401
7.42587	393758
7.43212	467952
7.43837	430016
7.44463	317954
7.45088	198120
7.45713	155477
7.46340	157428
7.46965	163863
7.47590	168975
7.48217	177736
7.48842	201249
7.49467	208872
7.50093	183670
7.50718	157341
7.51343	140546
7.51970	129057
7.52595	124748
7.53220	122372
7.53847	123833
7.54472	146107
7.55097	360237
7.55722	1438176
7.56348	4849660
7.56973	1.178947E+07
7.57598	2.082867E+07
7.58225	2.822454E+07
7.58850	2.919287E+07
7.59475	2.010812E+07
7.60102	7193728
7.60727	1996064
7.61352	1027405
7.61978	824204
7.62603	712919
7.63228	539244
7.63855	368356
7.64480	254633
7.65105	201195
7.65732	190355
7.66357	180541
7.66982	218416
7.67608	279476
7.68233	354945
7.68858	355275
7.69485	271508
7.70110	198519
7.70735	182416
7.71362	236356
7.71987	343090
7.72612	406641
7.73238	390716
7.73863	319215
7.74488	249755
7.75115	207242
7.75740	174325
7.76365	149436
7.76990	139272
7.77617	143277
7.78242	155396
7.78867	150270
7.79493	146335
7.80118	150620
7.80743	145928
7.81370	146525
7.81995	183044
7.82620	233345
7.83247	289594
7.83872	293052
7.84497	243032
7.85123	194005
7.85748	163008
7.86373	169657
7.87000	170318
7.87625	188167
7.88250	221753
7.88877	247707
7.89502	232025
7.90127	205989
7.90753	190590
7.91378	194233
7.92003	185624
7.92630	172344
7.93255	160017
7.93880	144931
7.94507	142807
7.95132	175011
7.95757	222655
7.96383	247701
7.97008	234996
7.97633	231048
7.98260	259494
7.98885	374921
7.99510	666643
8.00135	1124337
8.00762	1696992
8.01387	2355113
8.02012	2787225
8.02638	2447703
8.03263	1592045
8.03888	992768
8.04515	839808
8.05140	948055
8.05765	983208
8.06392	797055
8.07017	499736
8.07642	286798
8.08268	197429
8.08893	183712
8.09518	195129
8.10145	217203
8.10770	234237
8.11395	246045
8.12022	235306
8.12647	213015
8.13272	188946
8.13898	181337
8.14523	184376
8.15148	169405
8.15775	157079
8.16400	149837
8.17025	153393
8.17652	146783
8.18277	138052
8.18902	138835
8.19528	130466
8.20153	120831
8.20778	122380
8.21403	126298
8.22030	121742
8.22655	130509
8.23280	148307
8.23907	153433
8.24532	165469
8.25157	164040
8.25783	165135
8.26408	164103
8.27033	168766
8.27660	183170
8.28285	201887
8.28910	200053
8.29537	195849
8.30162	168117
8.30787	146676
8.31413	130025
8.32038	116964
8.32663	116617
8.33290	124662
8.33915	127023
8.34540	127733
8.35167	125759
8.35792	128392
8.36417	135090
8.37043	140841
8.37668	137674
8.38293	132877
8.38920	123972
8.39545	120420
8.40170	119797
8.40797	123058
8.41422	127063
8.42047	130231
8.42672	135542
8.43298	132038
8.43923	132052
8.44548	134045
8.45175	122503
8.45800	127759
8.46425	128223
8.47052	128153
8.47677	135611
8.48302	142422
8.48928	138378
8.49553	138909
8.50178	146122
8.50805	163014
8.51430	158613
8.52055	151470
8.52682	129082
8.53307	116351
8.53932	110370
8.54558	113065
8.55183	123192
8.55808	166229
8.56435	271778
8.57060	426966
8.57685	527111
8.58312	507374
8.58937	506333
8.59562	648497
8.60188	938862
8.60813	1574088
8.61438	3859019
8.62065	8723239
8.62690	1.39851E+07
8.63315	1.47877E+07
8.63942	1.043279E+07
8.64567	4324127
8.65192	1180917
8.65817	367835
8.66443	226019
8.67068	206448
8.67693	188764
8.68320	176864
8.68945	153059
8.69570	157298
8.70197	166554
8.70822	204081
8.71447	229473
8.72073	231664
8.72698	188725
8.73323	165875
8.73950	170151
8.74575	196018
8.75200	210548
8.75827	187422
8.76452	146507
8.77077	117921
8.77703	112315
8.78328	121000
8.78953	118220
8.79580	113412
8.80205	105614
8.80830	104478
8.81457	106786
8.82082	133957
8.82707	275700
8.83333	782829
8.83958	2098099
8.84583	4517757
8.85210	7579045
8.85835	1.009738E+07
8.86460	1.073122E+07
8.87085	9201612
8.87712	5409128
8.88337	1621734
8.88962	447953
8.89588	273943
8.90213	220511
8.90838	193821
8.91465	165944
8.92090	153269
8.92715	150090
8.93342	149203
8.93967	141801
8.94592	144293
8.95218	160300
8.95843	194760
8.96468	242930
8.97095	291371
8.97720	330143
8.98345	350845
8.98972	405126
8.99597	538273
9.00222	744433
9.00848	937993
9.01473	981557
9.02098	791813
9.02725	510546
9.03350	317764
9.03975	238935
9.04602	194944
9.05227	178056
9.05852	182284
9.06478	184459
9.07103	181339
9.07728	168747
9.08353	161877
9.08980	162806
9.09605	184856
9.10230	192846
9.10857	179167
9.11482	166874
9.12107	141826
9.12733	127927
9.13358	123803
9.13983	130676
9.14610	140185
9.15235	178608
9.15860	237696
9.16487	276582
9.17112	293231
9.17737	315350
9.18363	416719
9.18988	590306
9.19613	738772
9.20240	682680
9.20865	510307
9.21490	353714
9.22117	255391
9.22742	196606
9.23367	194923
9.23993	255737
9.24618	331973
9.25243	369589
9.25870	308299
9.26495	221542
9.27120	150251
9.27747	120802
9.28372	121883
9.28997	130283
9.29623	170384
9.30248	231655
9.30873	321629
9.31498	428308
9.32125	505357
9.32750	524275
9.33375	497692
9.34002	633587
9.34627	1005881
9.35252	1328775
9.35878	1228479
9.36503	818171
9.37128	536509
9.37755	817672
9.38380	2695818
9.39005	7310910
9.39632	1.278028E+07
9.40257	1.506612E+07
9.40882	1.242009E+07
9.41508	6040581
9.42133	1881214
9.42758	945867
9.43385	2381658
9.44010	7544677
9.44635	1.814168E+07
9.45262	3.185588E+07
9.45887	4.252729E+07
9.46512	4.824967E+07
9.47138	5.00545E+07
9.47763	4.781897E+07
9.48388	2.776471E+07
9.49015	4620495
9.49640	655628
9.50265	253614
9.50892	187637
9.51517	184422
9.52142	180546
9.52767	179482
9.53393	174416
9.54018	167344
9.54643	172088
9.55270	168886
9.55895	165308
9.56520	177971
9.57147	190892
9.57772	193821
9.58397	195512
9.59023	185838
9.59648	193252
9.60273	210780
9.60900	243750
9.61525	270266
9.62150	250733
9.62777	204594
9.63402	153848
9.64027	139066
9.64653	140745
9.65278	142504
9.65903	143629
9.66530	134320
9.67155	150375
9.67780	313839
9.68407	1233491
9.69032	4273904
9.69657	9951474
9.70283	1.486412E+07
9.70908	1.486268E+07
9.71533	9503515
9.72160	3687121
9.72785	1075823
9.73410	515547
9.74035	488241
9.74662	469236
9.75287	374481
9.75912	258621
9.76538	195750
9.77163	172660
9.77788	174258
9.78415	168885
9.79040	156644
9.79665	143495
9.80292	130924
9.80917	130286
9.81542	125052
9.82168	129547
9.82793	139586
9.83418	160191
9.84045	182057
9.84670	214140
9.85295	331948
9.85922	897510
9.86547	2565363
9.87172	5707395
9.87798	8183890
9.88423	7776744
9.89048	4751433
9.89675	2046690
9.90300	1207885
9.90925	1437197
9.91552	1560837
9.92177	1155316
9.92802	596838
9.93428	285185
9.94053	190714
9.94678	187297
9.95305	223599
9.95930	340894
9.96555	603556
9.97180	959566
9.97807	1222847
9.98432	1266825
9.99057	1102717
9.99683	853931
10.00308	631087
10.00933	429043
10.01560	306989
10.02185	248071
10.02810	220907
10.03437	192326
10.04062	176914
10.04687	172094
10.05313	172634
10.05938	160772
10.06563	146164
10.07190	138261
10.07815	134791
10.08440	152020
10.09067	177607
10.09692	214201
10.10317	225037
10.10943	206642
10.11568	186298
10.12193	152740
10.12820	141565
10.13445	125529
10.14070	123777
10.14697	121578
10.15322	124643
10.15947	133255
10.16573	128771
10.17198	136824
10.17823	151957
10.18448	165292
10.19075	175908
10.19700	155433
10.20325	144322
10.20952	137841
10.21577	156643
10.22202	223133
10.22828	368730
10.23453	577986
10.24078	828396
10.24705	875912
10.25330	699453
10.25955	474399
10.26582	337694
10.27207	264047
10.27832	212889
10.28458	186562
10.29083	201659
10.29708	221419
10.30335	217285
10.30960	196561
10.31585	172076
10.32212	165316
10.32837	153953
10.33462	149062
10.34088	150912
10.34713	140845
10.35338	138669
10.35965	134537
10.36590	151494
10.37215	157693
10.37842	145082
10.38467	136279
10.39092	124924
10.39718	117065
10.40343	103916
10.40968	96565
10.41593	106806
10.42220	117572
10.42845	131588
10.43470	138608
10.44097	143468
10.44722	149437
10.45347	154048
10.45973	164852
10.46598	160290
10.47223	177306
10.47850	234208
10.48475	358310
10.49100	450764
10.49727	400854
10.50352	294648
10.50977	192287
10.51603	143643
10.52228	134151
10.52853	169146
10.53480	225858
10.54105	275216
10.54730	271955
10.55357	230537
10.55982	194612
10.56607	173816
10.57233	176774
10.57858	191229
10.58483	198435
10.59110	196141
10.59735	211166
10.60360	440852
10.60987	1398990
10.61612	3854618
10.62237	7255248
10.62862	9525446
10.63488	8066686
10.64113	4373436
10.64738	1500767
10.65365	464994
10.65990	213839
10.66615	167576
10.67242	173355
10.67867	186451
10.68492	190461
10.69118	176633
10.69743	157070
10.70368	138091
10.70995	129074
10.71620	134630
10.72245	149748
10.72872	161400
10.73497	179684
10.74122	173300
10.74748	164914
10.75373	149310
10.75998	146424
10.76625	148913
10.77250	154516
10.77875	162809
10.78502	155484
10.79127	148567
10.79752	150081
10.80378	150140
10.81003	160022
10.81628	174830
10.82255	201473
10.82880	183268
10.83505	161163
10.84132	143345
10.84757	140864
10.85382	143863
10.86007	157115
10.86633	161391
10.87258	169365
10.87883	169365
10.88510	165992
10.89135	164592
10.89760	173994
10.90387	184152
10.91012	191882
10.91637	179459
10.92263	171955
10.92888	179893
10.93513	177050
10.94140	171355
10.94765	141731
10.95390	142849
10.96017	193238
10.96642	521578
10.97267	1828843
10.97893	5092470
10.98518	1.051268E+07
10.99143	1.626002E+07
10.99770	1.796034E+07
11.00395	1.304743E+07
11.01020	5859986
11.01647	1814226
11.02272	493828
11.02897	257351
11.03523	263506
11.04148	293190
11.04773	304972
11.05400	336232
11.06025	368333
11.06650	376581
11.07275	318113
11.07902	231737
11.08527	169550
11.09152	143869
11.09778	154046
11.10403	163225
11.11028	161010
11.11655	163338
11.12280	179821
11.12905	185198
11.13532	193583
11.14157	198887
11.14782	207346
11.15408	263921
11.16033	416540
11.16658	625097
11.17285	749546
11.17910	650372
11.18535	430790
11.19162	260420
11.19787	199646
11.20412	227005
11.21038	326609
11.21663	445265
11.22288	488972
11.22915	409816
11.23540	305884
11.24165	233392
11.24792	232191
11.25417	253764
11.26042	262319
11.26668	248913
11.27293	233801
11.27918	266512
11.28545	279580
11.29170	259341
11.29795	221102
11.30420	182477
11.31047	180389
11.31672	264594
11.32297	439856
11.32923	663244
11.33548	769621
11.34173	610137
11.34800	381765
11.35425	204153
11.36050	137191
11.36677	128139
11.37302	125252
11.37927	122536
11.38553	116772
11.39178	113357
11.39803	127109
11.40430	132370
11.41055	136856
11.41680	134778
11.42307	126652
11.42932	123018
11.43557	134909
11.44183	156233
11.44808	184430
11.45433	202435
11.46060	192627
11.46685	173863
11.47310	156989
11.47937	144648
11.48562	148380
11.49187	146386
11.49813	145137
11.50438	151851
11.51063	143520
11.51688	138755
11.52315	130266
11.52940	131662
11.53565	136820
11.54192	149938
11.54817	162999
11.55442	156336
11.56068	144606
11.56693	132470
11.57318	120867
11.57945	121373
11.58570	128354
11.59195	133118
11.59822	137265
11.60447	134887
11.61072	130679
11.61698	131484
11.62323	138451
11.62948	139413
11.63575	139815
11.64200	142086
11.64825	164042
11.65452	187365
11.66077	210815
11.66702	219314
11.67328	195919
11.67953	165565
11.68578	142816
11.69205	135193
11.69830	149775
11.70455	172414
11.71082	209389
11.71707	234088
11.72332	248352
11.72957	248027
11.73583	236229
11.74208	229811
11.74833	202030
11.75460	174464
11.76085	161484
11.76710	173878
11.77337	195701
11.77962	207260
11.78587	198919
11.79213	202767
11.79838	204876
11.80463	210889
11.81090	198428
11.81715	198732
11.82340	218575
11.82967	309205
11.83592	504299
11.84217	659335
11.84843	691720
11.85468	506565
11.86093	324531
11.86720	220323
11.87345	188783
11.87970	201933
11.88597	256938
11.89222	345720
11.89847	428286
11.90473	447322
11.91098	395509
11.91723	305698
11.92350	238505
11.92975	224413
11.93600	268403
11.94227	479459
11.94852	1106473
11.95477	2430945
11.96102	4463306
11.96728	6456199
11.97353	6472859
11.97978	4390237
11.98605	1908360
11.99230	710750
11.99855	341619
12.00482	267577
12.01107	253474
12.01732	264445
12.02358	296043
12.02983	341241
12.03608	428169
12.04235	631207
12.04860	968225
12.05485	1362101
12.06112	1531287
12.06737	1296653
12.07362	854296
12.07988	520458
12.08613	394778
12.09238	385546
12.09865	381407
12.10490	367205
12.11115	326324
12.11742	279245
12.12367	244313
12.12992	229207
12.13618	221920
12.14243	219894
12.14868	202655
12.15495	193342
12.16120	188981
12.16745	192583
12.17370	194507
12.17997	197030
12.18622	207321
12.19247	238065
12.19873	292102
12.20498	395055
12.21123	547691
12.21750	661341
12.22375	681500
12.23000	597405
12.23627	493347
12.24252	485042
12.24877	629501
12.25503	958891
12.26128	1354326
12.26753	1556419
12.27380	1378543
12.28005	986704
12.28630	643106
12.29257	439505
12.29882	309588
12.30507	230856
12.31133	184889
12.31758	165937
12.32383	152232
12.33010	153383
12.33635	160608
12.34260	188355
12.34887	232663
12.35512	259505
12.36137	265446
12.36763	244561
12.37388	234945
12.38013	266509
12.38638	355386
12.39265	427424
12.39890	418375
12.40515	328669
12.41142	264243
12.41767	219041
12.42392	236794
12.43018	276578
12.43643	344957
12.44268	396308
12.44895	393376
12.45520	334139
12.46145	267455
12.46772	248313
12.47397	346954
12.48022	655637
12.48648	1249153
12.49273	2009285
12.49898	2451055
12.50525	2201741
12.51150	1425798
12.51775	682312
12.52402	322961
12.53027	273344
12.53652	398441
12.54278	587191
12.54903	695506
12.55528	623368
12.56155	448396
12.56780	357596
12.57405	469843
12.58032	858364
12.58657	1463953
12.59282	1828615
12.59908	1909024
12.60533	1697063
12.61158	1762865
12.61783	2430673
12.62410	3507690
12.63035	4598855
12.63660	6025203
12.64287	8227086
12.64912	1.143078E+07
12.65537	1.573635E+07
12.66163	1.972058E+07
12.66788	2.414594E+07
12.67413	2.606364E+07
12.68040	2.472119E+07
12.68665	1.523955E+07
12.69290	4901317
12.69917	1128115
12.70542	415414
12.71167	320171
12.71793	314796
12.72418	343901
12.73043	395222
12.73670	489184
12.74295	547713
12.74920	549638
12.75547	485234
12.76172	442145
12.76797	407958
12.77423	353702
12.78048	309379
12.78673	286882
12.79300	266463
12.79925	258827
12.80550	253717
12.81177	232870
12.81802	234859
12.82427	244054
12.83052	263740
12.83678	266007
12.84303	244643
12.84928	231502
12.85555	236679
12.86180	245072
12.86805	262088
12.87432	302011
12.88057	435452
12.88682	771301
12.89308	1304168
12.89933	1665444
12.90558	1516500
12.91185	1114762
12.91810	699272
12.92435	436947
12.93062	302549
12.93687	229985
12.94312	189044
12.94938	163545
12.95563	155862
12.96188	147868
12.96815	136999
12.97440	132976
12.98065	135945
12.98692	146293
12.99317	150617
12.99942	172043
13.00568	199589
13.01193	225107
13.01818	254330
13.02445	296102
13.03070	394507
13.03695	524817
13.04322	549620
13.04947	432094
13.05572	275893
13.06197	189735
13.06823	154408
13.07448	176040
13.08073	231642
13.08700	297257
13.09325	323578
13.09950	330959
13.10577	340425
13.11202	341746
13.11827	321897
13.12453	280159
13.13078	252046
13.13703	240369
13.14330	250424
13.14955	254866
13.15580	244183
13.16207	225682
13.16832	210737
13.17457	186388
13.18083	162543
13.18708	141611
13.19333	136177
13.19960	134339
13.20585	139048
13.21210	142615
13.21837	149950
13.22462	162666
13.23087	188037
13.23713	208997
13.24338	224815
13.24963	214001
13.25590	209386
13.26215	213703
13.26840	215342
13.27465	200070
13.28092	180399
13.28717	166759
13.29342	169362
13.29968	178479
13.30593	185819
13.31218	181735
13.31845	167644
13.32470	151128
13.33095	139209
13.33722	144379
13.34347	156895
13.34972	178397
13.35598	184897
13.36223	183296
13.36848	165042
13.37475	145561
13.38100	135270
13.38725	122607
13.39352	120074
13.39977	119554
13.40602	125983
13.41228	135128
13.41853	144187
13.42478	162245
13.43105	191464
13.43730	230883
13.44355	251487
13.44982	247741
13.45607	214203
13.46232	176050
13.46858	150814
13.47483	143238
13.48108	148003
13.48735	152700
13.49360	157540
13.49985	157881
13.50610	157287
13.51237	159093
13.51862	169081
13.52487	181154
13.53113	190338
13.53738	235775
13.54363	351847
13.54990	585929
13.55615	886274
13.56240	1036875
13.56867	808249
13.57492	491522
13.58117	262660
13.58743	183607
13.59368	168188
13.59993	171572
13.60620	180997
13.61245	189341
13.61870	201739
13.62497	209398
13.63122	202746
13.63747	185787
13.64373	163604
13.64998	148080
13.65623	137095
13.66250	134873
13.66875	137087
13.67500	148403
13.68127	159841
13.68752	175037
13.69377	172437
13.70003	164217
13.70628	157927
13.71253	150266
13.71878	145960
13.72505	145420
13.73130	147006
13.73755	146000
13.74382	157682
13.75007	204377
13.75632	336394
13.76258	613989
13.76883	865406
13.77508	852140
13.78135	557762
13.78760	325693
13.79385	213157
13.80012	190923
13.80637	238737
13.81262	380705
13.81888	730190
13.82513	1288758
13.83138	1670097
13.83765	1526541
13.84390	1074358
13.85015	602481
13.85642	390078
13.86267	307884
13.86892	250789
13.87518	236227
13.88143	311448
13.88768	581358
13.89395	1207565
13.90020	2665147
13.90645	4936407
13.91272	7481633
13.91897	8897787
13.92522	6782963
13.93148	3328234
13.93773	1135580
13.94398	358783
13.95023	190292
13.95650	166939
13.96275	158403
13.96900	152966
13.97527	147759
13.98152	157116
13.98777	167255
13.99403	190589
14.00028	216058
14.00653	265737
14.01280	322096
14.01905	317860
14.02530	269823
14.03157	204181
14.03782	168677
14.04407	154144
14.05033	157691
14.05658	183026
14.06283	214062
14.06910	259781
14.07535	284358
14.08160	275220
14.08787	228496
14.09412	191810
14.10037	162671
14.10663	161119
14.11288	158461
14.11913	172286
14.12540	179722
14.13165	176074
14.13790	160628
14.14417	141549
14.15042	136273
14.15667	143501
14.16292	146650
14.16918	148460
14.17543	137571
14.18168	135452
14.18795	135586
14.19420	142984
14.20045	147866
14.20672	151251
14.21297	160230
14.21922	174995
14.22548	199763
14.23173	221340
14.23798	212926
14.24425	174632
14.25050	148377
14.25675	138071
14.26302	135201
14.26927	156367
14.27552	170422
14.28178	187703
14.28803	213971
14.29428	238006
14.30055	272405
14.30680	271445
14.31305	265057
14.31932	297269
14.32557	367146
14.33182	416085
14.33808	383785
14.34433	318672
14.35058	273228
14.35685	242269
14.36310	221539
14.36935	210501
14.37560	201729
14.38187	209763
14.38812	215938
14.39437	235869
14.40063	274440
14.40688	312218
14.41313	304896
14.41940	286961
14.42565	265288
14.43190	253623
14.43817	238442
14.44442	232392
14.45067	268095
14.45693	358475
14.46318	518494
14.46943	831763
14.47570	1318742
14.48195	1681937
14.48820	1566701
14.49447	1154431
14.50072	678211
14.50697	390748
14.51323	253550
14.51948	226935
14.52573	232979
14.53200	243172
14.53825	236535
14.54450	213534
14.55077	204979
14.55702	211966
14.56327	227325
14.56953	248135
14.57578	261026
14.58203	252442
14.58830	221952
14.59455	199817
14.60080	193317
14.60705	209193
14.61332	232337
14.61957	224839
14.62582	221667
14.63208	215613
14.63833	245016
14.64458	312788
14.65085	377852
14.65710	406192
14.66335	356525
14.66962	293458
14.67587	257198
14.68212	252876
14.68838	268023
14.69463	322587
14.70088	393042
14.70715	465435
14.71340	512721
14.71965	639345
14.72592	1003856
14.73217	1607082
14.73842	2235735
14.74468	2333681
14.75093	2090179
14.75718	1515178
14.76345	990091
14.76970	569249
14.77595	324202
14.78222	215173
14.78847	204548
14.79472	225975
14.80098	268513
14.80723	299011
14.81348	313021
14.81973	287055
14.82600	226665
14.83225	170108
14.83850	136724
14.84477	125875
14.85102	132095
14.85727	139690
14.86353	148714
14.86978	159928
14.87603	167781
14.88230	170123
14.88855	165480
14.89480	153585
14.90107	143894
14.90732	146148
14.91357	164041
14.91983	188087
14.92608	223087
14.93233	251031
14.93860	248206
14.94485	233848
14.95110	212849
14.95737	205336
14.96362	216131
14.96987	234305
14.97613	253854
14.98238	270691
14.98863	275549
14.99490	259711
15.00115	254217
15.00740	238364
15.01367	228188
15.01992	220340
15.02617	220804
15.03242	223685
15.03868	230674
15.04493	248079
15.05118	267284
15.05745	286465
15.06370	299852
15.06995	299217
15.07622	284193
15.08247	295696
15.08872	321027
15.09498	369293
15.10123	414047
15.10748	447825
15.11375	483369
15.12000	567816
15.12625	668723
15.13252	821891
15.13877	1011467
15.14502	1154287
15.15128	1297027
15.15753	1571925
15.16378	2577166
15.17005	4554901
15.17630	6778840
15.18255	7234844
15.18882	4838169
15.19507	2278211
15.20132	890687
15.20758	395094
15.21383	242134
15.22008	195731
15.22635	180856
15.23260	170706
15.23885	170179
15.24512	179516
15.25137	188299
15.25762	200722
15.26387	199433
15.27013	200584
15.27638	199045
15.28263	195496
15.28890	193067
15.29515	197727
15.30140	201968
15.30767	195730
15.31392	187069
15.32017	207812
15.32643	236411
15.33268	247689
15.33893	235655
15.34520	222976
15.35145	214833
15.35770	231385
15.36397	273749
15.37022	292525
15.37647	257296
15.38273	215680
15.38898	192741
15.39523	183440
15.40150	173799
15.40775	167314
15.41400	166001
15.42027	175462
15.42652	193682
15.43277	217435
15.43903	244293
15.44528	282059
15.45153	350413
15.45780	394191
15.46405	374992
15.47030	308203
15.47655	253801
15.48282	200345
15.48907	178827
15.49532	189613
15.50158	209402
15.50783	267861
15.51408	371125
15.52035	593527
15.52660	1097313
15.53285	2023400
15.53912	3689124
15.54537	6736416
15.55162	1.038051E+07
15.55788	1.231787E+07
15.56413	9954070
15.57038	4713686
15.57665	1477954
15.58290	514001
15.58915	323696
15.59542	305851
15.60167	304159
15.60792	290758
15.61418	262294
15.62043	248724
15.62668	258412
15.63295	278977
15.63920	300156
15.64545	275723
15.65172	239238
15.65797	206518
15.66422	202409
15.67048	211871
15.67673	233849
15.68298	253610
15.68923	268868
15.69550	275932
15.70175	293470
15.70800	289536
15.71427	254584
15.72052	216297
15.72677	195521
15.73303	192647
15.73928	204906
15.74553	222680
15.75180	224847
15.75805	211996
15.76430	181322
15.77057	159378
15.77682	152971
15.78307	159095
15.78933	169554
15.79558	196134
15.80183	196361
15.80810	187208
15.81435	166687
15.82060	153258
15.82687	163863
15.83312	189277
15.83937	238680
15.84563	305699
15.85188	341764
15.85813	307713
15.86440	239854
15.87065	202592
15.87690	194703
15.88317	193340
15.88942	188256
15.89567	173419
15.90193	164396
15.90818	155213
15.91443	154818
15.92068	147511
15.92695	151074
15.93320	151647
15.93945	152603
15.94572	156552
15.95197	163474
15.95822	182324
15.96448	208749
15.97073	227310
15.97698	218469
15.98325	181469
15.98950	139494
15.99575	128485
16.00202	139286
16.00827	169121
16.01452	221452
16.02078	287201
16.02703	374386
16.03328	535257
16.03955	853732
16.04580	1312891
16.05205	1853728
16.05832	2028755
16.06457	1668386
16.07082	1347395
16.07708	1445044
16.08333	2030022
16.08958	2276633
16.09585	1986424
16.10210	1460466
16.10835	1049647
16.11462	884941
16.12087	924011
16.12712	945629
16.13337	877782
16.13963	678085
16.14588	462322
16.15213	340139
16.15840	315806
16.16465	343294
16.17090	356427
16.17717	330081
16.18342	312804
16.18967	344758
16.19593	413647
16.20218	444955
16.20843	375687
16.21470	275388
16.22095	192004
16.22720	153841
16.23347	149639
16.23972	144360
16.24597	159755
16.25223	192373
16.25848	230102
16.26473	240439
16.27100	220769
16.27725	185515
16.28350	160342
16.28977	142235
16.29602	133988
16.30227	129900
16.30853	131214
16.31478	137515
16.32103	139711
16.32730	152508
16.33355	164458
16.33980	183472
16.34607	189691
16.35232	194424
16.35857	182595
16.36482	174826
16.37108	163373
16.37733	149136
16.38358	143096
16.38985	141421
16.39610	142342
16.40235	152141
16.40862	156162
16.41487	166885
16.42112	179529
16.42738	210841
16.43363	305988
16.43988	533894
16.44615	889418
16.45240	1177688
16.45865	1113318
16.46492	881136
16.47117	646694
16.47742	510373
16.48368	418445
16.48993	342797
16.49618	314886
16.50245	314099
16.50870	352574
16.51495	434401
16.52122	544735
16.52747	644656
16.53372	649598
16.53998	575261
16.54623	520827
16.55248	472072
16.55875	424160
16.56500	357862
16.57125	313818
16.57750	277285
16.58377	283565
16.59002	285798
16.59627	286445
16.60253	287950
16.60878	294112
16.61503	307512
16.62130	335059
16.62755	359186
16.63380	366112
16.64007	398844
16.64632	448142
16.65257	501387
16.65883	487883
16.66508	407580
16.67133	338092
16.67760	296969
16.68385	285449
16.69010	287389
16.69637	281579
16.70262	257414
16.70887	230939
16.71513	221969
16.72138	218301
16.72763	236029
16.73390	271022
16.74015	351290
16.74640	553914
16.75267	974604
16.75892	1822050
16.76517	3751800
16.77143	7830891
16.77768	1.394249E+07
16.78393	2.048882E+07
16.79020	2.422177E+07
16.79645	2.256355E+07
16.80270	1.574175E+07
16.80895	8812597
16.81522	5563085
16.82147	5102505
16.82772	6056554
16.83398	8598636
16.84023	1.143542E+07
16.84648	1.35823E+07
16.85275	1.417078E+07
16.85900	1.220457E+07
16.86525	8919266
16.87152	6327003
16.87777	6640720
16.88402	9097558
16.89028	1.323124E+07
16.89653	1.645554E+07
16.90278	1.672998E+07
16.90905	1.392614E+07
16.91530	9824761
16.92155	5829172
16.92782	3889375
16.93407	3436783
16.94032	3497870
16.94658	3426154
16.95283	3343643
16.95908	3449640
16.96535	3523859
16.97160	3126523
16.97785	2268167
16.98412	1388261
16.99037	865573
16.99662	747937
17.00288	1076514
17.00913	2406320
17.01538	5515228
17.02163	1.163231E+07
17.02790	1.960294E+07
17.03415	2.757264E+07
17.04040	3.414126E+07
17.04667	3.970497E+07
17.05292	4.543096E+07
17.05917	5.10024E+07
17.06543	5.21051E+07
17.07168	5.039276E+07
17.07793	4.716768E+07
17.08420	4.368787E+07
17.09045	4.007392E+07
17.09670	3.631426E+07
17.10297	3.490877E+07
17.10922	3.497382E+07
17.11547	3.415825E+07
17.12173	4.717744E+07
17.12798	1.971929E+07
17.13423	1.253813E+07
17.14050	1.158664E+07
17.14675	1.082647E+07
17.15300	1.190689E+07
17.15927	1.744669E+07
17.16552	2.926628E+07
17.17177	4.260476E+07
17.17803	4.971138E+07
17.18428	5.23192E+07
17.19053	5.174641E+07
17.19680	4.109702E+07
17.20305	1.210249E+07
17.20930	3500037
17.21557	3827114
17.22182	5130339
17.22807	6804311
17.23433	9712463
17.24058	1.540505E+07
17.24683	2.561745E+07
17.25308	3.914521E+07
17.25935	4.918894E+07
17.26560	5.322006E+07
17.27185	5.3416E+07
17.27812	5.07103E+07
17.28437	2.96668E+07
17.29062	9721738
17.29688	8938102
17.30313	1.237613E+07
17.30938	1.408132E+07
17.31565	1.136603E+07
17.32190	6258030
17.32815	2645061
17.33442	1130567
17.34067	791425
17.34692	700155
17.35318	647346
17.35943	592613
17.36568	568771
17.37195	568164
17.37820	614996
17.38445	691622
17.39072	732557
17.39697	807873
17.40322	987846
17.40948	1333057
17.41573	1956742
17.42198	2390357
17.42825	2301794
17.43450	1957508
17.44075	1693316
17.44702	2024942
17.45327	3060309
17.45952	4090908
17.46577	4060587
17.47203	3064238
17.47828	2067126
17.48453	1490588
17.49080	1335572
17.49705	1139575
17.50330	910228
17.50957	782532
17.51582	792606
17.52207	834077
17.52833	791449
17.53458	650260
17.54083	501433
17.54710	473729
17.55335	594516
17.55960	967578
17.56587	1950241
17.57212	4241610
17.57837	8188911
17.58463	1.192368E+07
17.59088	1.196038E+07
17.59713	8201736
17.60340	3740434
17.60965	1547803
17.61590	949091
17.62217	1082679
17.62842	1277189
17.63467	1235182
17.64093	891875
17.64718	591726
17.65343	421080
17.65970	365506
17.66595	326499
17.67220	334043
17.67845	349684
17.68472	372862
17.69097	399365
17.69722	413589
17.70348	404908
17.70973	377956
17.71598	344110
17.72225	314620
17.72850	299537
17.73475	320124
17.74102	350370
17.74727	387554
17.75352	408361
17.75978	405964
17.76603	435007
17.77228	512803
17.77855	657966
17.78480	896758
17.79105	1237733
17.79732	1706023
17.80357	2168730
17.80982	2254624
17.81608	1854387
17.82233	1399693
17.82858	1011178
17.83485	853833
17.84110	826699
17.84735	802717
17.85362	890835
17.85987	1497285
17.86612	3483053
17.87238	7042197
17.87863	1.156394E+07
17.88488	1.396118E+07
17.89115	1.072267E+07
17.89740	5175283
17.90365	1911218
17.90990	746327
17.91617	467607
17.92242	402641
17.92867	368470
17.93493	364504
17.94118	370168
17.94743	386309
17.95370	404311
17.95995	432211
17.96620	427386
17.97247	402449
17.97872	359522
17.98497	322588
17.99123	330171
17.99748	367479
18.00373	429405
18.01000	500107
18.01625	523976
18.02250	497592
18.02877	441973
18.03502	403916
18.04127	386187
18.04753	360928
18.05378	332987
18.06003	298555
18.06630	260424
18.07255	250093
18.07880	252302
18.08507	269917
18.09132	306094
18.09757	343706
18.10383	375913
18.11008	389528
18.11633	414314
18.12258	577173
18.12885	1164519
18.13510	2675166
18.14135	5175112
18.14762	7091326
18.15387	6881016
18.16012	4136795
18.16638	1886912
18.17263	758678
18.17888	408034
18.18515	310051
18.19140	278526
18.19765	268792
18.20392	286673
18.21017	336188
18.21642	409736
18.22268	452984
18.22893	434834
18.23518	371640
18.24145	305427
18.24770	285005
18.25395	280384
18.26022	298461
18.26647	334756
18.27272	403686
18.27898	515825
18.28523	723160
18.29148	1239417
18.29775	1999012
18.30400	2834992
18.31025	2994257
18.31652	2099421
18.32277	1056561
18.32902	492208
18.33527	273521
18.34153	204498
18.34778	183757
18.35403	182884
18.36030	186694
18.36655	189033
18.37280	201990
18.37907	227078
18.38532	288089
18.39157	351535
18.39783	372923
18.40408	328196
18.41033	276817
18.41660	232110
18.42285	209556
18.42910	198243
18.43537	185246
18.44162	185243
18.44787	181007
18.45413	183563
18.46038	189020
18.46663	201092
18.47290	210571
18.47915	210290
18.48540	203917
18.49167	188322
18.49792	180846
18.50417	182672
18.51043	187862
18.51668	184715
18.52293	189859
18.52920	200112
18.53545	197845
18.54170	205329
18.54797	205528
18.55422	204160
18.56047	203352
18.56672	202618
18.57298	197204
18.57923	187884
18.58548	175222
18.59175	175247
18.59800	177979
18.60425	185987
18.61052	184851
18.61677	187535
18.62302	188443
18.62928	198247
18.63553	208624
18.64178	231448
18.64805	248664
18.65430	256926
18.66055	233641
18.66682	207217
18.67307	201604
18.67932	195960
18.68558	196955
18.69183	192418
18.69808	191253
18.70435	195563
18.71060	220517
18.71685	248014
18.72312	269868
18.72937	247888
18.73562	211596
18.74188	186117
18.74813	167360
18.75438	171653
18.76065	165226
18.76690	163446
18.77315	169194
18.77940	169100
18.78567	169177
18.79192	169108
18.79817	170788
18.80443	178944
18.81068	179344
18.81693	188993
18.82320	189516
18.82945	187876
18.83570	192001
18.84197	210368
18.84822	275375
18.85447	472626
18.86073	1111960
18.86698	2827963
18.87323	6488777
18.87950	1.185512E+07
18.88575	1.69692E+07
18.89200	1.97544E+07
18.89827	1.874589E+07
18.90452	1.380377E+07
18.91077	9384268
18.91703	5211997
18.92328	2259183
18.92953	839096
18.93580	413476
18.94205	338412
18.94830	313073
18.95457	289622
18.96082	251976
18.96707	221272
18.97333	209499
18.97958	201445
18.98583	197879
18.99210	194417
18.99835	197979
19.00460	206990
19.01085	223461
19.01712	230895
19.02337	220962
19.02962	213332
19.03588	222374
19.04213	233599
19.04838	245441
19.05465	248355
19.06090	231633
19.06715	203323
19.07342	184722
19.07967	173512
19.08592	167857
19.09218	170146
19.09843	169607
19.10468	179799
19.11095	186908
19.11720	185606
19.12345	183191
19.12972	196195
19.13597	216425
19.14222	216716
19.14848	211572
19.15473	201726
19.16098	185978
19.16725	182997
19.17350	176362
19.17975	174488
19.18602	173629
19.19227	178566
19.19852	177373
19.20478	168435
19.21103	155867
19.21728	149395
19.22353	142894
19.22980	144327
19.23605	147374
19.24230	150575
19.24857	153936
19.25482	154415
19.26107	155327
19.26733	154947
19.27358	152830
19.27983	150635
19.28610	156533
19.29235	157830
19.29860	159999
19.30487	149979
19.31112	143576
19.31737	133920
19.32363	135453
19.32988	140225
19.33613	150184
19.34240	168116
19.34865	179940
19.35490	199213
19.36117	199228
19.36742	192530
19.37367	193547
19.37993	191319
19.38618	191218
19.39243	188313
19.39870	202278
19.40495	208083
19.41120	203437
19.41747	179746
19.42372	158393
19.42997	142945
19.43623	139025
19.44248	132997
19.44873	138782
19.45498	138504
19.46125	134630
19.46750	137716
19.47375	137347
19.48002	138995
19.48627	138614
19.49252	143388
19.49878	149119
19.50503	155683
19.51128	173822
19.51755	199199
19.52380	210968
19.53005	196091
19.53632	173833
19.54257	159993
19.54882	159729
19.55508	162596
19.56133	157468
19.56758	151804
19.57385	148827
19.58010	141219
19.58635	137862
19.59262	142229
19.59887	141380
19.60512	137009
19.61138	131155
19.61763	137044
19.62388	147915
19.63015	176441
19.63640	208510
19.64265	219694
19.64892	198622
19.65517	170818
19.66142	158436
19.66767	171993
19.67393	213581
19.68018	243712
19.68643	282575
19.69270	268293
19.69895	243018
19.70520	234054
19.71147	231164
19.71772	225778
19.72397	194487
19.73023	166894
19.73648	160174
19.74273	164242
19.74900	160981
19.75525	158229
19.76150	161688
19.76777	161198
19.77402	166838
19.78027	161139
19.78653	153542
19.79278	148416
19.79903	146712
19.80530	146126
19.81155	141300
19.81780	135936
19.82407	135600
19.83032	137316
19.83657	135006
19.84283	131626
19.84908	142643
19.85533	151206
19.86160	167870
19.86785	176973
19.87410	181263
19.88037	169531
19.88662	157016
19.89287	161367
19.89912	213838
19.90538	480601
19.91163	1526794
19.91788	4069638
19.92415	7864744
19.93040	1.098384E+07
19.93665	1.059226E+07
19.94292	6538080
19.94917	2621789
19.95542	834926
19.96168	324587
19.96793	235018
19.97418	226997
19.98045	221577
19.98670	217536
19.99295	200296
19.99922	175584
20.00547	164919
20.01172	151933
20.01798	147368
20.02423	149274
20.03048	145174
20.03675	145716
20.04300	147697
20.04925	147311
20.05552	146550
20.06177	141646
20.06802	140042
20.07428	141148
20.08053	145739
20.08678	159062
20.09305	179713
20.09930	187699
20.10555	186830
20.11180	172272
20.11807	155628
20.12432	138635
20.13057	134183
20.13683	131729
20.14308	135519
20.14933	134006
20.15560	138548
20.16185	148556
20.16810	148746
20.17437	148798
20.18062	148453
20.18687	146963
20.19313	148973
20.19938	146386
20.20563	155482
20.21190	154169
20.21815	167528
20.22440	188087
20.23067	202862
20.23692	209027
20.24317	203776
20.24943	182707
20.25568	169597
20.26193	155325
20.26820	156304
20.27445	164342
20.28070	177373
20.28697	208219
20.29322	292238
20.29947	463409
20.30573	660842
20.31198	695592
20.31823	565453
20.32448	368530
20.33075	248274
20.33700	199876
20.34325	182148
20.34952	181296
20.35577	177821
20.36202	176029
20.36828	166037
20.37453	161477
20.38078	162487
20.38705	164272
20.39330	153727
20.39955	154765
20.40582	149700
20.41207	155627
20.41832	185674
20.42458	257277
20.43083	452432
20.43708	800310
20.44335	1169906
20.44960	1274303
20.45585	989953
20.46212	620783
20.46837	398227
20.47462	361217
20.48088	425244
20.48713	461073
20.49338	469488
20.49965	367572
20.50590	279930
20.51215	223029
20.51842	203379
20.52467	200141
20.53092	198633
20.53718	198644
20.54343	214244
20.54968	226209
20.55593	247052
20.56220	249565
20.56845	239242
20.57470	269819
20.58097	395718
20.58722	657606
20.59347	861952
20.59973	917545
20.60598	677472
20.61223	428471
20.61850	282810
20.62475	228215
20.63100	223743
20.63727	227318
20.64352	224636
20.64977	204440
20.65603	190690
20.66228	183508
20.66853	184236
20.67480	181982
20.68105	176597
20.68730	171828
20.69357	164136
20.69982	173623
20.70607	196371
20.71233	271429
20.71858	406174
20.72483	572465
20.73110	613345
20.73735	552614
20.74360	392777
20.74987	302104
20.75612	319489
20.76237	440960
20.76862	573893
20.77488	669357
20.78113	601351
20.78738	448552
20.79365	324947
20.79990	250311
20.80615	213627
20.81242	196403
20.81867	190848
20.82492	176455
20.83118	170603
20.83743	169229
20.84368	173066
20.84995	177604
20.85620	180179
20.86245	183119
20.86872	178500
20.87497	169017
20.88122	165202
20.88748	157506
20.89373	162607
20.89998	157169
20.90625	158736
20.91250	157394
20.91875	168001
20.92502	194081
20.93127	270005
20.93752	475411
20.94378	781506
20.95003	1087502
20.95628	1033439
20.96255	763058
20.96880	498133
20.97505	346838
20.98130	275196
20.98757	235863
20.99382	208855
21.00007	192221
21.00633	185290
21.01258	191410
21.01883	188444
21.02510	194014
21.03135	194994
21.03760	199541
21.04387	201357
21.05012	200325
21.05637	184529
21.06263	169646
21.06888	166154
21.07513	170736
21.08140	174272
21.08765	170628
21.09390	170747
21.10017	169288
21.10642	180888
21.11267	204865
21.11893	226650
21.12518	231358
21.13143	218249
21.13770	191610
21.14395	173000
21.15020	163230
21.15647	166321
21.16272	154933
21.16897	153714
21.17523	149920
21.18148	156749
21.18773	159179
21.19400	178435
21.20025	189878
21.20650	201418
21.21275	219014
21.21902	218931
21.22527	208005
21.23152	186756
21.23778	173163
21.24403	165441
21.25028	161130
21.25655	155053
21.26280	152059
21.26905	147962
21.27532	156655
21.28157	160728
21.28782	169537
21.29408	176863
21.30033	176127
21.30658	170147
21.31285	176858
21.31910	206946
21.32535	267852
21.33162	301835
21.33787	308969
21.34412	253698
21.35038	197626
21.35663	163222
21.36288	162680
21.36915	172400
21.37540	184366
21.38165	179984
21.38792	169006
21.39417	156662
21.40042	151158
21.40668	147446
21.41293	156654
21.41918	173414
21.42543	192794
21.43170	196876
21.43795	196155
21.44420	188123
21.45047	175383
21.45672	183431
21.46297	198043
21.46923	217618
21.47548	225226
21.48173	195105
21.48800	166197
21.49425	152401
21.50050	139289
21.50677	138144
21.51302	134296
21.51927	132009
21.52553	132499
21.53178	143211
21.53803	149284
21.54430	147834
21.55055	143585
21.55680	144436
21.56307	154128
21.56932	185104
21.57557	203319
21.58183	225755
21.58808	207880
21.59433	182551
21.60060	166761
21.60685	154780
21.61310	147273
21.61937	141973
21.62562	132733
21.63187	128953
21.63812	128582
21.64438	128277
21.65063	132312
21.65688	131394
21.66315	134956
21.66940	137982
21.67565	135226
21.68192	140640
21.68817	139012
21.69442	136213
21.70068	131221
21.70693	128071
21.71318	129304
21.71945	134963
21.72570	141475
21.73195	151112
21.73822	146737
21.74447	145429
21.75072	143690
21.75698	137710
21.76323	134192
21.76948	135901
21.77575	133849
21.78200	135145
21.78825	140897
21.79452	141936
21.80077	155897
21.80702	172402
21.81328	197061
21.81953	208990
21.82578	189802
21.83205	170069
21.83830	146772
21.84455	140528
21.85082	140534
21.85707	132215
21.86332	138929
21.86957	135326
21.87583	137760
21.88208	134985
21.88833	135791
21.89460	146120
21.90085	163239
21.90710	202958
21.91337	246500
21.91962	258232
21.92587	236029
21.93213	209384
21.93838	193906
21.94463	191562
21.95090	172319
21.95715	162268
21.96340	153424
21.96967	151607
21.97592	156749
21.98217	163027
21.98843	167620
21.99468	159871
22.00093	162486
22.00720	165228
22.01345	169857
22.01970	171494
22.02597	172899
22.03222	173219
22.03847	182027
22.04473	194189
22.05098	208050
22.05723	210485
22.06350	222736
22.06975	243311
22.07600	279697
22.08225	282592
22.08852	257433
22.09477	212326
22.10102	178732
22.10728	161579
22.11353	163107
22.11978	166208
22.12605	168480
22.13230	165729
22.13855	164044
22.14482	154074
22.15107	150068
22.15732	156654
22.16358	160552
22.16983	159940
22.17608	163609
22.18235	157618
22.18860	158837
22.19485	151563
22.20112	155749
22.20737	150161
22.21362	156985
22.21988	162086
22.22613	167959
22.23238	176781
22.23865	203199
22.24490	260662
22.25115	329753
22.25742	376832
22.26367	379483
22.26992	359184
22.27618	300506
22.28243	280793
22.28868	258834
22.29495	249439
22.30120	230985
22.30745	204238
22.31370	188115
22.31997	179083
22.32622	164541
22.33247	161739
22.33873	164821
22.34498	204563
22.35123	335280
22.35750	659707
22.36375	1220521
22.37000	1689171
22.37627	1605103
22.38252	1136201
22.38877	583298
22.39503	302622
22.40128	206482
22.40753	181107
22.41380	177105
22.42005	182737
22.42630	188603
22.43257	192003
22.43882	209541
22.44507	216958
22.45133	254490
22.45758	307180
22.46383	366877
22.47010	370312
22.47635	322000
22.48260	269464
22.48887	243511
22.49512	230416
22.50137	221880
22.50763	216755
22.51388	201501
22.52013	195007
22.52638	190363
22.53265	213241
22.53890	263488
22.54515	344431
22.55142	409191
22.55767	410576
22.56392	348637
22.57018	286660
22.57643	234695
22.58268	199838
22.58895	189437
22.59520	177528
22.60145	172048
22.60772	165590
22.61397	168060
22.62022	170328
22.62648	178583
22.63273	223436
22.63898	286139
22.64525	346263
22.65150	376015
22.65775	329396
22.66402	268647
22.67027	231481
22.67652	205131
22.68278	195695
22.68903	185359
22.69528	184412
22.70155	184643
22.70780	177740
22.71405	177981
22.72032	175912
22.72657	174787
22.73282	176458
22.73908	172310
22.74533	174470
22.75158	169056
22.75783	179655
22.76410	199472
22.77035	218716
22.77660	285405
22.78287	532766
22.78912	1407254
22.79537	3470868
22.80163	6542648
22.80788	8931613
22.81413	9381604
22.82040	6253601
22.82665	3179302
22.83290	1284265
22.83917	548760
22.84542	329205
22.85167	258426
22.85793	236438
22.86418	228378
22.87043	219816
22.87670	208135
22.88295	203988
22.88920	194125
22.89547	186015
22.90172	185283
22.90797	188151
22.91423	182990
22.92048	178316
22.92673	179152
22.93300	176680
22.93925	183226
22.94550	180672
22.95177	182359
22.95802	179981
22.96427	188333
22.97052	205116
22.97678	215556
22.98303	217537
22.98928	217895
22.99555	195445
23.00180	190749
23.00805	183461
23.01432	177868
23.02057	174334
23.02682	172347
23.03308	171941
23.03933	172486
23.04558	170280
23.05185	171269
23.05810	169703
23.06435	171519
23.07062	180117
23.07687	183408
23.08312	184544
23.08938	185377
23.09563	177005
23.10188	178404
23.10815	176610
23.11440	176457
23.12065	170357
23.12692	166984
23.13317	165136
23.13942	161633
23.14568	168094
23.15193	166388
23.15818	166132
23.16445	165072
23.17070	161643
23.17695	162708
23.18322	161011
23.18947	166506
23.19572	167422
23.20197	169379
23.20823	171155
23.21448	172211
23.22073	170232
23.22700	173933
23.23325	184895
23.23950	196824
23.24577	215528
23.25202	225268
23.25827	225964
23.26453	198955
23.27078	185842
23.27703	175655
23.28330	169150
23.28955	173403
23.29580	167629
23.30207	169130
23.30832	171133
23.31457	173281
23.32083	171240
23.32708	169869
23.33333	174270
23.33960	168584
23.34585	168219
23.35210	170805
23.35837	172280
23.36462	171943
23.37087	180232
23.37713	188939
23.38338	198439
23.38963	210021
23.39590	215542
23.40215	203792
23.40840	197877
23.41465	185100
23.42092	181794
23.42717	176309
23.43342	173192
23.43968	176860
23.44593	181346
23.45218	179241
23.45845	182159
23.46470	188713
23.47095	194052
23.47722	198027
23.48347	210452
23.48972	215052
23.49598	217174
23.50223	233585
23.50848	267223
23.51475	311712
23.52100	353280
23.52725	356222
23.53352	321761
23.53977	265067
23.54602	225939
23.55228	213315
23.55853	205083
23.56478	216302
23.57105	224038
23.57730	246578
23.58355	260694
23.58982	281499
23.59607	282145
23.60232	283851
23.60858	263229
23.61483	242733
23.62108	226567
23.62733	214592
23.63360	208266
23.63985	202603
23.64610	197551
23.65237	199305
23.65862	192505
23.66487	194191
23.67113	197390
23.67738	196602
23.68363	196196
23.68990	197572
23.69615	200245
23.70240	202051
23.70867	202292
23.71492	222540
23.72117	252005
23.72743	292422
23.73368	312658
23.73993	319858
23.74620	282802
23.75245	251957
23.75870	231692
23.76497	224888
23.77122	217313
23.77747	216391
23.78373	213257
23.78998	216665
23.79623	213884
23.80250	220377
23.80875	215218
23.81500	214490
23.82127	214083
23.82752	216513
23.83377	213614
23.84003	215833
23.84628	219198
23.85253	220673
23.85878	220015
23.86505	222610
23.87130	227911
23.87755	227203
23.88382	232601
23.89007	243817
23.89632	237988
23.90258	235135
23.90883	226269
23.91508	229478
23.92135	237990
23.92760	238872
23.93385	239516
23.94012	252593
23.94637	285647
23.95262	430944
23.95888	792474
23.96513	1335713
23.97138	1809953
23.97765	1840088
23.98390	1397633
23.99015	1017633
23.99642	759965
24.00267	603099
24.00892	490555
24.01518	386144
24.02143	327859
24.02768	290890
24.03395	270564
24.04020	272049
24.04645	271529
24.05272	308117
24.05897	374629
24.06522	527920
24.07147	735467
24.07773	899127
24.08398	865133
24.09023	695444
24.09650	524309
24.10275	416101
24.10900	369458
24.11527	353938
24.12152	351882
24.12777	339627
24.13403	330791
24.14028	311142
24.14653	301027
24.15280	299344
24.15905	308750
24.16530	333516
24.17157	376814
24.17782	465905
24.18407	588067
24.19033	790184
24.19658	1286674
24.20283	2768610
24.20910	6171590
24.21535	1.239774E+07
24.22160	2.182575E+07
24.22787	3.197557E+07
24.23412	4.006928E+07
24.24037	4.354891E+07
24.24663	4.508156E+07
24.25288	4.427254E+07
24.25913	3.098824E+07
24.26540	1.008954E+07
24.27165	4296089
24.27790	3090690
24.28415	2745574
24.29042	2474815
24.29667	2390246
24.30292	2215893
24.30918	2134163
24.31543	2186181
24.32168	2145398
24.32795	2232133
24.33420	2302497
24.34045	2419861
24.34672	2505695
24.35297	2646107
24.35922	2754771
24.36548	2817979
24.37173	2845577
24.37798	2785784
24.38425	2764927
24.39050	2668624
24.39675	2486703
24.40302	2384613
24.40927	2288904
24.41552	2163159
24.42178	2077640
24.42803	1954480
24.43428	1863415
24.44055	1754772
24.44680	1644618
24.45305	1619591
24.45932	1502996
24.46557	1422034
24.47182	1350382
24.47808	1307584
24.48433	1276827
24.49058	1239631
24.49685	1183764
24.50310	1155768
24.50935	1147941
24.51560	1090544
24.52187	1057357
24.52812	1017102
24.53437	994345
24.54063	937492
24.54688	898257
24.55313	862789
24.55940	804654
24.56565	782683
24.57190	761897
24.57817	734969
24.58442	731059
24.59067	697244
24.59693	662995
24.60318	612612
24.60943	559264
24.61570	520098
24.62195	498780
24.62820	475241
24.63447	459321
24.64072	466951
24.64697	479602
24.65323	481628
24.65948	471228
24.66573	426929
24.67200	386843
24.67825	346721
24.68450	329088
24.69077	307165
24.69702	293532
24.70327	293508
24.70953	280409
24.71578	267999
24.72203	266183
24.72828	264993
24.73455	260250
24.74080	264571
24.74705	261160
24.75332	259486
24.75957	257905
24.76582	269989
24.77208	274978
24.77833	273436
24.78458	253200
24.79085	239699
24.79710	218077
24.80335	208701
24.80962	197663
24.81587	197743
24.82212	188450
24.82838	186041
24.83463	183491
24.84088	184554
24.84715	181511
24.85340	183355
24.85965	185557
24.86592	192675
24.87217	224696
24.87842	283116
24.88468	401720
24.89093	514728
24.89718	591251
24.90345	543476
24.90970	419694
24.91595	340100
24.92222	311537
24.92847	304214
24.93472	284833
24.94098	262255
24.94723	233732
24.95348	226740
24.95973	224911
24.96600	219568
24.97225	209311
24.97850	193985
24.98477	181853
24.99102	175615
24.99727	163425
25.00353	168730
25.00978	161340
25.01603	160602
25.02230	164734
25.02855	159694
25.03480	157860
25.04107	161305
25.04732	160701
25.05357	156116
25.05983	156963
25.06608	157723
25.07233	154335
25.07860	154676
25.08485	156701
25.09110	156275
25.09737	151114
25.10362	157575
25.10987	149906
25.11613	151900
25.12238	152464
25.12863	150221
25.13490	147706
25.14115	146602
25.14740	149678
25.15367	151537
25.15992	153466
25.16617	159962
25.17242	173104
25.17868	203852
25.18493	251026
25.19118	294441
25.19745	293024
25.20370	258441
25.20995	212521
25.21622	180801
25.22247	169089
25.22872	157804
25.23498	155557
25.24123	151769
25.24748	152234
25.25375	151955
25.26000	153097
25.26625	149860
25.27252	156747
25.27877	171712
25.28502	200565
25.29128	239267
25.29753	273868
25.30378	269919
25.31005	253689
25.31630	212061
25.32255	182674
25.32882	166112
25.33507	162292
25.34132	160372
25.34758	161236
25.35383	155592
25.36008	152230
25.36635	151616
25.37260	152253
25.37885	159673
25.38512	177535
25.39137	232605
25.39762	416228
25.40387	738059
25.41013	1079509
25.41638	1270396
25.42263	1058944
25.42890	733118
25.43515	491038
25.44140	349803
25.44767	281980
25.45392	237814
25.46017	217375
25.46643	203373
25.47268	189769
25.47893	192372
25.48520	191381
25.49145	210179
25.49770	242206
25.50397	263595
25.51022	275258
25.51647	263338
25.52273	249967
25.52898	245967
25.53523	279328
25.54150	341083
25.54775	377422
25.55400	363606
25.56027	302382
25.56652	236781
25.57277	196626
25.57903	177139
25.58528	166850
25.59153	161968
25.59780	176988
25.60405	184149
25.61030	187832
25.61655	184870
25.62282	173398
25.62907	167515
25.63532	156563
25.64158	158590
25.64783	150876
25.65408	145776
25.66035	145588
25.66660	147576
25.67285	147820
25.67912	149398
25.68537	145512
25.69162	147377
25.69788	150917
25.70413	146174
25.71038	143403
25.71665	147523
25.72290	143512
25.72915	144678
25.73542	153311
25.74167	162114
25.74792	170317
25.75418	172498
25.76043	162669
25.76668	156746
25.77295	151238
25.77920	151496
25.78545	145925
25.79172	145429
25.79797	143852
25.80422	139983
25.81048	141849
25.81673	137759
25.82298	134301
25.82925	134892
25.83550	137917
25.84175	139235
25.84800	143126
25.85427	140063
25.86052	147654
25.86677	149318
25.87303	142996
25.87928	142763
25.88553	136363
25.89180	138969
25.89805	138173
25.90430	137679
25.91057	137202
25.91682	141269
25.92307	138408
25.92933	144957
25.93558	147607
25.94183	151207
25.94810	151538
25.95435	143951
25.96060	140019
25.96687	135952
25.97312	133279
25.97937	135786
25.98563	131884
25.99188	132433
25.99813	133566
26.00440	132010
26.01065	137719
26.01690	135849
26.02317	139590
26.02942	139200
26.03567	144450
26.04193	139559
26.04818	140533
26.05443	140542
26.06068	141922
26.06695	137648
26.07320	133584
26.07945	139849
26.08572	135745
26.09197	134558
26.09822	133064
26.10448	136454
26.11073	136673
26.11698	135009
26.12325	138795
26.12950	134383
26.13575	134195
26.14202	134183
26.14827	133855
26.15452	136903
26.16078	137877
26.16703	136065
26.17328	141257
26.17955	141178
26.18580	141649
26.19205	142236
26.19832	136454
26.20457	138144
26.21082	137649
26.21708	138334
26.22333	134757
26.22958	139711
26.23585	136520
26.24210	138051
26.24835	141464
26.25462	140531
26.26087	145457
26.26712	142958
26.27337	140027
26.27963	141382
26.28588	137087
26.29213	144179
26.29840	140019
26.30465	139054
26.31090	138245
26.31717	139992
26.32342	143288
26.32967	141394
26.33593	141215
26.34218	138283
26.34843	142021
26.35470	143120
26.36095	144847
26.36720	145772
26.37347	148692
26.37972	149856
26.38597	149529
26.39223	148165
26.39848	145266
26.40473	144475
26.41100	149117
26.41725	155965
26.42350	156874
26.42977	155429
26.43602	150433
26.44227	150477
26.44853	150429
26.45478	149213
26.46103	153707
26.46730	149448
26.47355	157403
26.47980	151265
26.48607	153156
26.49232	158857
26.49857	160391
26.50482	162500
26.51108	161073
26.51733	162515
26.52358	164477
26.52985	173327
26.53610	184125
26.54235	190120
26.54862	173282
26.55487	167237
26.56112	162732
26.56738	162340
26.57363	162466
26.57988	163100
26.58615	160326
26.59240	160257
26.59865	168101
26.60492	170305
26.61117	187169
26.61742	191732
26.62368	190740
26.62993	184750
26.63618	182194
26.64245	194179
26.64870	236382
26.65495	378587
26.66122	650380
26.66747	1099986
26.67372	1413119
26.67998	1520772
26.68623	1243613
26.69248	900039
26.69875	655036
26.70500	520824
26.71125	443654
26.71750	364750
26.72377	311905
26.73002	275708
26.73627	245668
26.74253	242541
26.74878	246182
26.75503	275349
26.76130	342651
26.76755	418122
26.77380	468495
26.78007	442551
26.78632	387657
26.79257	335492
26.79883	313973
26.80508	301689
26.81133	268514
26.81760	251268
26.82385	232976
26.83010	241450
26.83637	249011
26.84262	258125
26.84887	254447
26.85513	237792
26.86138	237244
26.86763	250097
26.87390	257030
26.88015	291938
26.88640	360520
26.89267	423539
26.89892	563171
26.90517	1045214
26.91143	2779742
26.91768	6010970
26.92393	1.135559E+07
26.93018	1.938352E+07
26.93645	2.445301E+07
26.94270	2.653716E+07
26.94895	1.928347E+07
26.95522	9275313
26.96147	4023978
26.96772	2169909
26.97398	1371005
26.98023	882616
26.98648	614650
26.99275	473799
26.99900	413539
27.00525	433265
27.01152	593129
27.01777	932729
27.02402	1288567
27.03028	1587356
27.03653	1375696
27.04278	984043
27.04905	674545
27.05530	522168
27.06155	459138
27.06782	431264
27.07407	409925
27.08032	379344
27.08658	339622
27.09283	323582
27.09908	298956
27.10535	291777
27.11160	285878
27.11785	296015
27.12412	355144
27.13037	421664
27.13662	517867
27.14288	569105
27.14913	529460
27.15538	439150
27.16163	362685
27.16790	323642
27.17415	310151
27.18040	321271
27.18667	312810
27.19292	306455
27.19917	282887
27.20543	279262
27.21168	272162
27.21793	267126
27.22420	271444
27.23045	266725
27.23670	261593
27.24297	264257
27.24922	281397
27.25547	301052
27.26173	301116
27.26798	279852
27.27423	275130
27.28050	269826
27.28675	275381
27.29300	265749
27.29927	258712
27.30552	268522
27.31177	269882
27.31803	265894
27.32428	269827
27.33053	268240
27.33680	260716
27.34305	266148
27.34930	266827
27.35557	288618
27.36182	298128
27.36807	285006
27.37432	278838
27.38058	264701
27.38683	270318
27.39308	263838
27.39935	283784
27.40560	297288
27.41185	322328
27.41812	334896
27.42437	334154
27.43062	315783
27.43688	288052
27.44313	291079
27.44938	273393
27.45565	257576
27.46190	256714
27.46815	245697
27.47442	250633
27.48067	244422
27.48692	253642
27.49318	253405
27.49943	244247
27.50568	234247
27.51195	237311
27.51820	240266
27.52445	242358
27.53072	239970
27.53697	248621
27.54322	252869
27.54948	251747
27.55573	250597
27.56198	247191
27.56825	234599
27.57450	236184
27.58075	234670
27.58702	248488
27.59327	238752
27.59952	247197
27.60577	240419
27.61203	248970
27.61828	241736
27.62453	243022
27.63080	244667
27.63705	250246
27.64330	250775
27.64957	246612
27.65582	250802
27.66207	239769
27.66833	240188
27.67458	254085
27.68083	255860
27.68710	251863
27.69335	252974
27.69960	257772
27.70587	258406
27.71212	268734
27.71837	273852
27.72463	283460
27.73088	280106
27.73713	276378
27.74340	269514
27.74965	268957
27.75590	281105
27.76217	280513
27.76842	278876
27.77467	280073
27.78093	265845
27.78718	258814
27.79343	254960
27.79970	253461
27.80595	261199
27.81220	249242
27.81845	253190
27.82472	250387
27.83097	265087
27.83722	285846
27.84348	326265
27.84973	456160
27.85598	681780
27.86225	1105755
27.86850	1458986
27.87475	1586856
27.88102	1369011
27.88727	1069401
27.89352	772706
27.89978	596806
27.90603	495520
27.91228	433845
27.91855	390430
27.92480	376826
27.93105	352853
27.93732	344693
27.94357	335160
27.94982	322662
27.95608	314442
27.96233	302280
27.96858	304054
27.97485	300276
27.98110	307028
27.98735	313203
27.99362	301393
27.99987	298893
28.00612	303291
28.01238	298772
28.01863	287652
28.02488	288007
28.03115	279294
28.03740	283206
28.04365	287308
28.04990	288620
28.05617	277918
28.06242	289653
28.06867	274883
28.07493	276943
28.08118	287812
28.08743	275773
28.09370	281397
28.09995	279887
28.10620	271821
28.11247	285547
28.11872	279312
28.12497	281307
28.13123	289660
28.13748	278274
28.14373	279731
28.15000	274757
28.15625	275718
28.16250	276076
28.16877	275034
28.17502	274072
28.18127	282040
28.18753	269988
28.19378	283864
28.20003	278355
28.20630	285683
28.21255	284076
28.21880	276553
28.22507	286377
28.23132	285478
28.23757	279661
28.24383	291392
28.25008	290957
28.25633	282942
28.26258	295655
28.26885	289607
28.27510	296796
28.28135	306945
28.28762	312450
28.29387	320461
28.30012	328020
28.30638	335578
28.31263	341153
28.31888	337957
28.32515	348933
28.33140	365763
28.33765	359114
28.34392	378640
28.35017	392902
28.35642	410078
28.36268	400323
28.36893	424066
28.37518	431240
28.38145	419644
28.38770	431758
28.39395	420505
28.40022	428702
28.40647	414647
28.41272	418945
28.41898	410176
28.42523	408254
28.43148	401809
28.43775	380988
28.44400	371714
28.45025	368115
28.45652	361040
28.46277	362292
28.46902	343746
28.47528	340064
28.48153	336396
28.48778	327534
28.49403	328920
28.50030	326049
28.50655	314868
28.51280	322848
28.51907	309873
28.52532	317764
28.53157	305600
28.53783	312386
28.54408	307272
28.55033	308146
28.55660	289191
28.56285	290874
28.56910	293422
28.57537	290423
28.58162	294584
28.58787	292521
28.59413	287231
28.60038	286442
28.60663	286990
28.61290	282048
28.61915	290877
28.62540	280528
28.63167	287525
28.63792	284973
28.64417	291987
28.65043	279693
28.65668	290224
28.66293	287834
28.66920	277126
28.67545	287698
28.68170	280789
28.68797	278725
28.69422	285083
28.70047	274205
28.70672	281273
28.71298	273549
28.71923	278213
28.72548	286309
28.73175	273618
28.73800	280132
28.74425	280709
28.75052	277088
28.75677	276477
28.76302	285118
28.76928	271370
28.77553	271827
28.78178	280598
28.78805	280849
28.79430	271774
28.80055	270950
28.80682	271757
28.81307	272443
28.81932	278268
28.82558	277209
28.83183	270999
28.83808	272052
28.84435	272777
28.85060	268455
28.85685	270865
28.86312	279826
28.86937	280354
28.87562	274023
28.88188	272007
28.88813	278960
28.89438	276688
28.90065	277840
28.90690	269267
28.91315	277322
28.91940	267772
28.92567	266608
28.93192	274598
28.93817	274363
28.94443	279667
28.95068	266216
28.95693	272880
28.96320	265906
28.96945	278463
28.97570	266909
28.98197	269117
28.98822	266601
28.99447	270366
29.00073	263175
29.00698	275508
29.01323	267469
29.01950	263384
29.02575	276026
29.03200	274346
29.03827	267345
29.04452	266293
29.05077	265840
29.05703	275332
29.06328	271001
29.06953	268273
29.07580	270743
29.08205	273325
29.08830	275754
29.09457	265872
29.10082	261417
29.10707	275222
29.11333	264205
29.11958	274270
29.12583	274918
29.13210	269694
29.13835	267741
29.14460	265139
29.15085	259914
29.15712	265587
29.16337	262179
29.16962	259165
29.17588	260991
29.18213	261995
29.18838	270275
29.19465	265692
29.20090	280733
29.20715	292980
29.21342	314580
29.21967	368431
29.22592	456831
29.23218	601634
29.23843	755622
29.24468	884532
29.25095	908722
29.25720	883590
29.26345	773769
29.26972	650111
29.27597	534215
29.28222	457022
29.28848	408343
29.29473	373375
29.30098	360099
29.30725	336351
29.31350	328654
29.31975	319789
29.32602	319547
29.33227	314207
29.33852	300831
29.34478	304507
29.35103	298111
29.35728	302487
29.36353	291293
29.36980	294422
29.37605	281639
29.38230	280872
29.38857	279239
29.39482	290033
29.40107	287875
29.40733	279042
29.41358	275547
29.41983	283972
29.42610	283348
29.43235	280015
29.43860	279633
29.44487	271903
29.45112	277994
29.45737	268770
29.46363	275997
29.46988	280236
29.47613	269660
29.48240	276585
29.48865	264500
29.49490	269614
29.50117	269826
29.50742	265752
29.51367	269706
29.51993	270163
29.52618	273554
29.53243	261775
29.53870	276473
29.54495	259170
29.55120	262059
29.55747	269572
29.56372	267051
29.56997	263295
29.57622	271077
29.58248	271188
29.58873	260293
29.59498	274152
29.60125	272499
29.60750	272545
29.61375	267716
29.62002	259182
29.62627	272570
29.63252	262263
29.63878	261502
29.64503	262113
29.65128	259730
29.65755	261639
29.66380	265084
29.67005	267720
29.67632	267145
29.68257	256688
29.68882	269584
29.69508	258461
29.70133	255359
29.70758	256495
29.71385	263979
29.72010	263327
29.72635	258232
29.73262	256577
29.73887	267151
29.74512	262599
29.75138	254821
29.75763	258271
29.76388	265827
29.77015	253289
29.77640	255516
29.78265	263053
29.78892	253819
29.79517	258675
29.80142	256892
29.80767	254213
29.81393	261557
29.82018	255853
29.82643	252913
29.83270	255041
29.83895	258247
29.84520	253820
29.85147	256637
29.85772	264132
29.86397	251877
29.87023	251903
29.87648	253731
29.88273	251554
29.88900	262220
29.89525	265285
29.90150	259991
29.90777	262814
29.91402	257999
29.92027	255216
29.92653	263960
29.93278	257430
29.93903	259723
29.94530	258125
29.95155	250396
29.95780	248779
29.96407	250826
29.97032	257524
29.97657	249428
29.98283	255145
29.98908	250689
29.99533	257061
30.00160	261359
30.00785	253213
30.01410	260092
30.02035	261218
30.02662	262744
30.03287	257177
30.03912	255870
30.04538	250061
30.05163	248620
30.05788	247299
30.06415	251633
30.07040	249344
30.07665	256870
30.08292	248160
30.08917	261655
30.09542	248804
30.10168	248170
30.10793	246200
30.11418	253827
30.12045	254831
30.12670	250362
30.13295	257188
30.13922	253954
30.14547	257077
30.15172	244231
30.15798	252179
30.16423	249995
30.17048	255127
30.17675	253714
30.18300	245916
30.18925	245706
30.19552	247676
30.20177	253574
30.20802	245267
30.21428	250732
30.22053	243695
30.22678	246206
30.23305	247907
30.23930	243304
30.24555	245673
30.25180	242953
30.25807	252259
30.26432	242342
30.27057	246789
30.27683	245189
30.28308	239217
30.28933	253456
30.29560	247965
30.30185	256082
30.30810	247963
30.31437	243893
30.32062	249463
30.32687	244499
30.33313	242739
30.33938	246258
30.34563	252863
30.35190	251672
30.35815	244352
30.36440	251012
30.37067	248320
30.37692	244099
30.38317	253593
30.38943	241165
30.39568	250960
30.40193	247381
30.40820	239602
30.41445	250116
30.42070	245628
30.42697	248749
30.43322	249392
30.43947	246011
30.44573	241556
30.45198	239200
30.45823	238125
30.46448	240616
30.47075	251089
30.47700	246895
30.48325	238572
30.48952	248202
30.49577	242070
30.50202	239877
30.50828	241699
30.51453	250768
30.52078	246938
30.52705	241061
30.53330	249712
30.53955	247029
30.54582	237746
30.55207	247355
30.55832	245542
30.56458	240797
30.57083	246183
30.57708	241376
30.58335	240622
30.58960	251340
30.59585	243275
30.60212	237913
30.60837	244840
30.61462	247403
30.62088	238897
30.62713	239960
30.63338	246623
30.63965	246504
30.64590	237967
30.65215	236286
30.65842	239641
30.66467	243844
30.67092	249208
30.67718	237828
30.68343	237309
30.68968	246115
30.69593	248196
30.70220	248683
30.70845	237652
30.71470	239896
30.72097	236786
30.72722	237401
30.73347	236588
30.73973	234745
30.74598	236766
30.75223	238220
30.75850	241780
30.76475	242637
30.77100	235295
30.77727	233679
30.78352	243279
30.78977	232704
30.79603	246470
30.80228	237037
30.80853	237577
30.81480	234357
30.82105	233822
30.82730	241035
30.83357	233477
30.83982	237694
30.84607	243347
30.85233	237875
30.85858	244411
30.86483	235965
30.87110	237331
30.87735	232907
30.88360	234752
30.88987	234803
30.89612	229288
30.90237	245484
30.90862	231861
30.91488	240471
30.92113	243378
30.92738	239083
30.93365	232842
30.93990	233586
30.94615	239915
30.95242	233791
30.95867	243878
30.96492	253332
30.97118	261951
30.97743	269625
30.98368	306131
30.98995	335388
30.99620	371682
31.00245	397397
31.00872	420234
31.01497	427156
31.02122	427791
31.02748	413529
31.03373	402265
31.03998	357326
31.04625	331289
31.05250	307554
31.05875	286634
31.06502	272936
31.07127	264782
31.07752	266738
31.08378	266808
31.09003	259132
31.09628	259712
31.10255	256669
31.10880	250967
31.11505	245706
31.12132	248851
31.12757	247845
31.13382	253820
31.14007	241393
31.14633	244400
31.15258	241668
31.15883	239084
31.16510	241681
31.17135	238351
31.17760	240300
31.18387	243631
31.19012	241055
31.19637	248698
31.20263	241322
31.20888	240950
31.21513	236738
31.22140	243616
31.22765	245923
31.23390	239299
31.24017	234864
31.24642	235723
31.25267	232176
31.25893	232841
31.26518	233974
31.27143	231702
31.27770	236599
31.28395	237961
31.29020	238399
31.29647	228994
31.30272	239805
31.30897	241630
31.31523	233347
31.32148	237270
31.32773	233092
31.33400	237531
31.34025	241650
31.34650	235653
31.35275	236630
31.35902	243193
31.36527	237526
31.37152	242802
31.37778	237855
31.38403	236231
31.39028	238183
31.39655	245252
31.40280	244724
31.40905	233670
31.41532	242792
31.42157	236200
31.42782	237566
31.43408	232623
31.44033	247670
31.44658	234374
31.45285	235710
31.45910	232289
31.46535	242882
31.47162	232487
31.47787	230404
31.48412	231209
31.49038	233288
31.49663	239288
31.50288	230872
31.50915	237399
31.51540	227644
31.52165	230695
31.52792	229410
31.53417	236147
31.54042	229402
31.54668	230356
31.55293	232561
31.55918	231444
31.56543	227045
31.57170	222828
31.57795	228366
31.58420	233352
31.59047	227225
31.59672	227649
31.60297	228151
31.60923	228696
31.61548	234157
31.62173	226445
31.62800	236631
31.63425	222729
31.64050	224478
31.64677	233987
31.65302	233077
31.65927	226417
31.66553	236766
31.67178	223745
31.67803	223577
31.68430	229793
31.69055	231749
31.69680	231162
31.70307	225014
31.70932	225602
31.71557	220840
31.72183	223066
31.72808	230781
31.73433	222131
31.74060	227396
31.74685	222422
31.75310	220780
31.75937	229791
31.76562	221203
31.77187	223902
31.77813	232741
31.78438	221327
31.79063	229607
31.79688	227333
31.80315	225787
31.80940	229135
31.81565	227159
31.82192	222429
31.82817	231159
31.83442	219846
31.84068	231040
31.84693	229329
31.85318	228880
31.85945	220267
31.86570	224795
31.87195	221047
31.87822	228621
31.88447	220736
31.89072	221398
31.89698	227733
31.90323	228136
31.90948	226051
31.91575	218735
31.92200	228788
31.92825	225993
31.93452	226001
31.94077	228520
31.94702	217621
31.95328	220106
31.95953	222234
31.96578	215709
31.97205	224514
31.97830	219071
31.98455	223291
31.99082	225630
31.99707	228534
32.00332	226591
32.00957	224324
32.01583	215264
32.02208	220069
32.02833	213833
32.03460	219077
32.04085	219154
32.04710	217266
32.05337	215078
32.05962	217302
32.06587	214027
32.07213	213787
32.07838	224135
32.08463	220091
32.09090	218275
32.09715	215242
32.10340	216194
32.10967	214596
32.11592	223895
32.12217	213746
32.12843	222958
32.13468	224502
32.14093	216554
32.14720	219951
32.15345	214483
32.15970	224641
32.16597	223329
32.17222	213074
32.17847	214955
32.18473	218944
32.19098	223840
32.19723	217432
32.20350	213585
32.20975	212195
32.21600	222090
32.22225	215383
32.22852	214543
32.23477	224378
32.24102	219553
32.24728	225157
32.25353	226744
32.25978	225721
32.26605	219731
32.27230	226977
32.27855	220950
32.28482	217822
32.29107	223112
32.29732	221690
32.30358	213115
32.30983	214461
32.31608	220748
32.32235	220159
32.32860	219083
32.33485	219718
32.34112	217038
32.34737	210460
32.35362	216770
32.35988	210945
32.36613	219598
32.37238	218577
32.37865	211530
32.38490	220902
32.39115	221104
32.39742	219168
32.40367	216997
32.40992	214249
32.41618	212695
32.42243	217867
32.42868	211710
32.43495	210593
32.44120	217340
32.44745	208043
32.45370	211611
32.45997	218104
32.46622	213794
32.47247	212451
32.47873	214727
32.48498	208803
32.49123	211510
32.49750	216491
32.50375	217724
32.51000	221691
32.51627	215932
32.52252	210188
32.52877	216817
32.53503	220645
32.54128	218175
32.54753	209270
32.55380	213209
32.56005	216642
32.56630	213305
32.57257	210049
32.57882	210095
32.58507	209914
32.59133	207102
32.59758	208925
32.60383	216023
32.61010	214957
32.61635	210555
32.62260	201909
32.62887	205416
32.63512	203818
32.64137	213194
32.64763	214373
32.65388	217285
32.66013	217725
32.66638	208289
32.67265	208637
32.67890	210416
32.68515	204335
32.69142	216457
32.69767	208277
32.70392	213794
32.71018	210292
32.71643	208045
32.72268	209292
32.72895	205603
32.73520	208384
32.74145	210316
32.74772	209890
32.75397	206161
32.76022	213449
32.76648	214939
32.77273	213078
32.77898	207195
32.78525	204420
32.79150	213081
32.79775	207043
32.80402	214808
32.81027	211080
32.81652	210812
32.82278	215256
32.82903	214697
32.83528	206176
32.84155	207104
32.84780	214134
32.85405	212228
32.86032	204671
32.86657	205947
32.87282	204680
32.87908	209036
32.88533	202710
32.89158	207920
32.89783	202462
32.90410	201783
32.91035	213695
32.91660	204590
32.92287	214182
32.92912	214472
32.93537	203553
32.94163	212742
32.94788	215184
32.95413	215610
32.96040	211251
32.96665	211838
32.97290	208545
32.97917	215280
32.98542	213252
32.99167	211985
32.99793	208785
33.00418	206088
33.01043	203617
33.01670	206544
33.02295	206505
33.02920	209115
33.03547	204749
33.04172	205062
33.04797	204211
33.05423	199851
33.06048	214554
33.06673	210008
33.07300	208589
33.07925	201235
33.08550	213077
33.09177	209768
33.09802	201147
33.10427	209723
33.11052	207844
33.11678	209352
33.12303	205275
33.12928	208069
33.13555	213702
33.14180	212645
33.14805	212215
33.15432	224311
33.16057	211655
33.16682	219103
33.17308	224430
33.17933	221551
33.18558	214898
33.19185	223553
33.19810	216464
33.20435	212279
33.21062	212849
33.21687	212716
33.22312	209274
33.22938	211852
33.23563	208001
33.24188	206546
33.24815	206335
33.25440	212527
33.26065	202684
33.26692	202631
33.27317	206783
33.27942	212676
33.28568	202671
33.29193	205263
33.29818	207865
33.30445	211577
33.31070	212244
33.31695	202851
33.32322	211630
33.32947	214056
33.33572	212466
33.34197	230465
33.34823	223676
33.35448	239794
33.36073	245842
33.36700	243963
33.37325	252368
33.37950	250559
33.38577	257837
33.39202	252078
33.39827	239189
33.40453	239376
33.41078	232855
33.41703	234357
33.42330	232880
33.42955	222222
33.43580	217794
33.44207	210836
33.44832	217778
33.45457	213663
33.46083	207524
33.46708	205697
33.47333	204593
33.47960	211655
33.48585	200838
33.49210	210512
33.49837	208521
33.50462	201482
33.51087	205126
33.51713	204213
33.52338	200867
33.52963	200221
33.53590	208011
33.54215	203304
33.54840	200280
33.55465	210485
33.56092	203013
33.56717	207515
33.57342	197725
33.57968	196563
33.58593	201924
33.59218	200909
33.59845	196308
33.60470	203861
33.61095	197542
33.61722	206118
33.62347	204344
33.62972	197785
33.63598	196421
33.64223	198271
33.64848	202820
33.65475	203115
33.66100	198532
33.66725	198044
33.67352	201634
33.67977	202428
33.68602	198912
33.69228	197856
33.69853	193406
33.70478	198058
33.71105	203197
33.71730	204148
33.72355	203243
33.72982	198085
33.73607	203416
33.74232	198883
33.74858	198981
33.75483	192665
33.76108	195828
33.76735	203419
33.77360	195837
33.77985	194101
33.78610	204497
33.79237	193237
33.79862	196831
33.80487	193922
33.81113	197940
33.81738	193622
33.82363	197285
33.82990	200619
33.83615	199334
33.84240	195408
33.84867	195247
33.85492	196415
33.86117	193027
33.86743	193842
33.87368	197447
33.87993	200825
33.88620	202155
33.89245	203102
33.89870	192044
33.90497	201894
33.91122	198525
33.91747	195513
33.92373	194773
33.92998	194930
33.93623	199747
33.94250	200819
33.94875	195032
33.95500	195494
33.96127	194355
33.96752	193653
33.97377	195681
33.98003	200380
33.98628	195869
33.99253	196495
33.99878	195576
34.00505	190923
34.01130	193348
34.01755	191267
34.02382	192729
34.03007	192148
34.03632	195426
34.04258	192453
34.04883	194722
34.05508	194049
34.06135	191025
34.06760	197363
34.07385	196873
34.08012	190733
34.08637	197748
34.09262	200392
34.09888	195657
34.10513	191757
34.11138	199011
34.11765	201620
34.12390	203463
34.13015	197298
34.13642	188735
34.14267	191651
34.14892	192798
34.15518	191859
34.16143	197719
34.16768	193993
34.17395	192097
34.18020	198878
34.18645	192140
34.19272	188627
34.19897	194923
34.20522	192414
34.21147	197311
34.21773	190883
34.22398	199755
34.23023	188475
34.23650	189148
34.24275	187968
34.24900	194415
34.25527	189515
34.26152	186893
34.26777	192534
34.27403	195012
34.28028	189688
34.28653	196050
34.29280	194488
34.29905	197657
34.30530	193357
34.31157	191125
34.31782	195064
34.32407	190682
34.33033	186895
34.33658	190406
34.34283	188457
34.34910	197840
34.35535	190742
34.36160	190644
34.36787	187623
34.37412	186779
34.38037	187464
34.38663	196024
34.39288	192646
34.39913	188121
34.40540	192344
34.41165	192851
34.41790	188095
34.42417	187976
34.43042	188668
34.43667	187833
34.44292	190772
34.44918	195079
34.45543	184639
34.46168	183665
34.46795	195761
34.47420	194359
34.48045	190750
34.48672	185140
34.49297	184300
34.49922	190296
34.50548	194862
34.51173	192019
34.51798	183183
34.52425	188462
34.53050	187763
34.53675	183361
34.54302	192231
34.54927	184929
34.55552	192404
34.56178	186093
34.56803	187465
34.57428	192621
34.58055	190518
34.58680	184490
34.59305	194144
34.59932	188375
34.60557	194889
34.61182	193399
34.61808	186433
34.62433	192201
34.63058	190288
34.63685	193692
34.64310	188045
34.64935	182908
34.65560	191164
34.66187	187970
34.66812	190746
34.67437	186502
34.68063	183659
34.68688	186813
34.69313	187005
34.69940	187086
34.70565	188874
34.71190	192494
34.71817	189936
34.72442	188815
34.73067	186931
34.73693	189885
34.74318	178762
34.74943	192800
34.75570	192126
34.76195	186225
34.76820	180068
34.77447	184411
34.78072	191482
34.78697	188920
34.79323	186565
34.79948	179807
34.80573	186721
34.81200	183152
34.81825	182026
34.82450	186617
34.83077	190348
34.83702	182460
34.84327	184244
34.84953	185360
34.85578	186015
34.86203	188121
34.86828	180725
34.87455	183333
34.88080	184711
34.88705	191334
34.89332	184268
34.89957	185990
34.90582	184868
34.91208	180823
34.91833	181695
34.92458	183803
34.93085	182839
34.93710	184727
34.94335	185242
34.94962	188586
34.95587	182115
34.96212	185119
34.96838	184096
34.97463	187669
34.98088	189830
34.98715	180423
34.99340	188992
34.99965	181943
35.00592	183358
35.01217	185548
35.01842	176612
35.02468	184672
35.03093	184554
35.03718	192333
35.04345	181310
35.04970	182483
35.05595	185556
35.06222	185927
35.06847	177679
35.07472	179990
35.08098	181774
35.08723	179972
35.09348	180113
35.09973	179577
35.10600	181670
35.11225	182853
35.11850	182616
35.12477	180531
35.13102	184428
35.13727	183639
35.14353	179786
35.14978	186959
35.15603	178742
35.16230	178982
35.16855	180062
35.17480	177503
35.18107	182294
35.18732	185120
35.19357	180657
35.19983	181282
35.20608	182427
35.21233	186538
35.21860	181366
35.22485	178419
35.23110	186695
35.23737	175492
35.24362	185198
35.24987	184373
35.25613	179468
35.26238	187445
35.26863	181370
35.27490	178280
35.28115	186263
35.28740	180652
35.29367	178153
35.29992	184803
35.30617	176130
35.31242	184970
35.31868	180148
35.32493	176340
35.33118	179647
35.33745	175168
35.34370	185492
35.34995	184312
35.35622	186239
35.36247	181682
35.36872	184147
35.37498	180470
35.38123	180809
35.38748	176216
35.39375	176466
35.40000	185873
35.40625	184725
35.41252	178176
35.41877	178293
35.42502	179906
35.43128	177481
35.43753	179533
35.44378	182542
35.45005	184006
35.45630	183920
35.46255	178148
35.46882	184177
35.47507	179970
35.48132	174391
35.48758	178844
35.49383	189768
35.50008	181860
35.50635	179571
35.51260	180453
35.51885	176261
35.52512	179616
35.53137	174964
35.53762	177116
35.54387	184130
35.55013	177059
35.55638	179529
35.56263	177279
35.56890	185206
35.57515	179886
35.58140	180879
35.58767	184930
35.59392	180281
35.60017	179030
35.60643	178701
35.61268	181977
35.61893	185798
35.62520	177998
35.63145	183414
35.63770	178996
35.64397	185435
35.65022	183706
35.65647	178802
35.66273	181142
35.66898	178620
35.67523	177693
35.68150	174977
35.68775	175530
35.69400	180201
35.70027	178136
35.70652	179838
35.71277	179029
35.71903	181845
35.72528	181454
35.73153	173959
35.73780	181242
35.74405	181920
35.75030	174281
35.75655	183001
35.76282	172142
35.76907	176597
35.77532	177560
35.78158	176340
35.78783	177528
35.79408	175586
35.80035	180358
35.80660	170777
35.81285	176209
35.81912	172495
35.82537	171682
35.83162	174876
35.83788	175746
35.84413	175807
35.85038	173259
35.85665	176321
35.86290	177714
35.86915	177595
35.87542	176182
35.88167	180098
35.88792	170051
35.89418	178369
35.90043	180662
35.90668	176542
35.91295	169580
35.91920	172087
35.92545	177348
35.93172	173483
35.93797	174574
35.94422	178263
35.95048	174665
35.95673	170958
35.96298	173487
35.96925	175689
35.97550	175797
35.98175	176790
35.98800	171696
35.99427	174718
36.00052	170663
36.00677	173325
36.01303	174627
36.01928	173150
36.02553	179617
36.03180	173905
36.03805	171459
36.04430	174330
36.05057	180804
36.05682	176047
36.06307	169582
36.06933	174609
36.07558	177607
36.08183	168125
36.08810	173430
36.09435	174795
36.10060	174845
36.10687	176653
36.11312	176911
36.11937	169817
36.12563	170799
36.13188	171759
36.13813	173751
36.14440	171611
36.15065	170913
36.15690	178336
36.16317	173607
36.16942	178119
36.17567	171801
36.18193	168096
36.18818	173137
36.19443	172009
36.20068	174360
36.20695	169274
36.21320	175010
36.21945	174901
36.22572	175393
36.23197	187046
36.23822	188738
36.24448	189308
36.25073	191036
36.25698	200714
36.26325	210498
36.26950	225544
36.27575	234422
36.28202	243782
36.28827	250602
36.29452	272160
36.30078	276873
36.30703	293767
36.31328	295547
36.31955	299876
36.32580	297365
36.33205	293047
36.33832	296990
36.34457	285296
36.35082	275091
36.35708	268264
36.36333	251377
36.36958	244244
36.37585	232798
36.38210	228469
36.38835	210406
36.39462	208337
36.40087	201109
36.40712	193827
36.41338	193804
36.41963	187852
36.42588	188427
36.43213	190153
36.43840	182058
36.44465	179465
36.45090	181118
36.45717	187073
36.46342	180110
36.46967	180562
36.47593	178920
36.48218	183347
36.48843	184733
36.49470	182324
36.50095	179020
36.50720	180984
36.51347	178684
36.51972	178278
36.52597	175614
36.53223	179742
36.53848	175195
36.54473	182003
36.55100	178399
36.55725	177754
36.56350	176797
36.56977	184372
36.57602	178670
36.58227	181761
36.58853	177912
36.59478	179535
36.60103	179327
36.60730	177704
36.61355	178005
36.61980	180489
36.62607	188172
36.63232	179918
36.63857	179776
36.64482	184463
36.65108	180256
36.65733	186503
36.66358	185488
36.66985	175645
36.67610	176152
36.68235	174364
36.68862	176033
36.69487	177332
36.70112	179622
36.70738	172793
36.71363	171623
36.71988	168657
36.72615	169280
36.73240	167599
36.73865	172369
36.74492	172306
36.75117	175252
36.75742	168859
36.76368	177559
36.76993	169250
36.77618	175842
36.78245	170498
36.78870	167235
36.79495	178173
36.80122	167181
36.80747	176930
36.81372	172749
36.81998	169304
36.82623	175164
36.83248	169680
36.83875	168794
36.84500	174260
36.85125	167875
36.85750	174598
36.86377	169653
36.87002	167619
36.87627	165844
36.88253	167288
36.88878	168702
36.89503	164573
36.90130	171863
36.90755	171713
36.91380	169278
36.92007	174368
36.92632	169544
36.93257	167389
36.93883	165639
36.94508	167567
36.95133	168369
36.95760	173763
36.96385	171456
36.97010	166114
36.97637	168145
36.98262	170193
36.98887	171572
36.99513	169461
37.00138	166541
37.00763	166423
37.01390	169086
37.02015	169812
37.02640	165533
37.03267	167024
37.03892	171317
37.04517	164136
37.05143	166260
37.05768	170327
37.06393	167998
37.07020	165204
37.07645	170033
37.08270	165257
37.08895	164085
37.09522	172759
37.10147	169976
37.10772	165820
37.11398	164875
37.12023	167789
37.12648	164999
37.13275	169707
37.13900	167228
37.14525	175074
37.15152	165215
37.15777	171159
37.16402	169262
37.17028	160852
37.17653	164769
37.18278	166166
37.18905	163200
37.19530	164347
37.20155	164858
37.20782	171710
37.21407	163912
37.22032	168356
37.22658	167907
37.23283	166162
37.23908	169714
37.24535	167134
37.25160	165235
37.25785	162904
37.26412	165870
37.27037	160796
37.27662	165583
37.28288	169013
37.28913	166773
37.29538	164518
37.30163	165759
37.30790	168048
37.31415	171050
37.32040	162360
37.32667	160549
37.33292	168758
37.33917	166379
37.34543	164125
37.35168	164457
37.35793	164465
37.36420	165236
37.37045	166371
37.37670	165422
37.38297	169169
37.38922	163409
37.39547	163586
37.40173	165912
37.40798	166298
37.41423	161308
37.42050	161672
37.42675	169540
37.43300	162975
37.43927	165823
37.44552	165409
37.45177	164454
37.45803	167077
37.46428	164246
37.47053	164796
37.47680	169236
37.48305	168180
37.48930	162014
