D:\MassHunter\GCMS\1\data\metastasis_lineages_3replicates_3runs_10302020\B_plate1_run1_10302020.D Fri Oct 30 15:46:39 2020
Start of data points
5.99340,208039
5.99965,209868
6.00590,208389
6.01217,216081
6.01842,238796
6.02467,244929
6.03093,225901
6.03718,216565
6.04343,211784
6.04970,223015
6.05595,229641
6.06220,226365
6.06847,212444
6.07472,211290
6.08097,228167
6.08723,229542
6.09348,223867
6.09973,208471
6.10600,217982
6.11225,355751
6.11850,697545
6.12475,1031747
6.13102,1005703
6.13727,643725
6.14352,371816
6.14978,266345
6.15603,236137
6.16228,271733
6.16855,430116
6.17480,718649
6.18105,971101
6.18732,956821
6.19357,685617
6.19982,436094
6.20608,302437
6.21233,253216
6.21858,223304
6.22485,218069
6.23110,199266
6.23735,198183
6.24362,186448
6.24987,169549
6.25612,176125
6.26238,159442
6.26863,151889
6.27488,157456
6.28115,154818
6.28740,165473
6.29365,166167
6.29992,167920
6.30617,166492
6.31242,226867
6.31868,374450
6.32493,643529
6.33118,1089759
6.33745,2119406
6.34370,4736527
6.34995,9050675
6.35620,1.193994E+07
6.36247,9769580
6.36872,3967362
6.37497,931851
6.38123,286578
6.38748,212721
6.39373,201718
6.40000,185988
6.40625,196759
6.41250,246434
6.41877,368391
6.42502,547732
6.43127,633501
6.43753,649402
6.44378,762405
6.45003,810676
6.45630,721574
6.46255,856310
6.46880,2076388
6.47507,5017975
6.48132,1.001503E+07
6.48757,1.622699E+07
6.49383,2.232699E+07
6.50008,2.801073E+07
6.50633,3.417744E+07
6.51260,3.954039E+07
6.51885,4.297221E+07
6.52510,4.433922E+07
6.53137,4.416435E+07
6.53762,4.225899E+07
6.54387,1.566739E+07
6.55013,1252177
6.55638,630401
6.56263,604077
6.56888,597827
6.57515,690054
6.58140,1115415
6.58765,1803904
6.59392,2049341
6.60017,1409344
6.60642,670863
6.61268,363274
6.61893,288148
6.62518,263348
6.63145,251724
6.63770,252786
6.64395,258284
6.65022,251847
6.65647,251536
6.66272,239446
6.66898,239569
6.67523,289946
6.68148,356666
6.68775,392561
6.69400,342253
6.70025,277014
6.70652,250899
6.71277,241890
6.71902,244222
6.72528,261438
6.73153,274886
6.73778,287784
6.74405,291045
6.75030,305003
6.75655,301207
6.76282,304533
6.76907,301014
6.77532,307388
6.78158,307818
6.78783,320164
6.79408,318466
6.80033,332651
6.80660,356594
6.81285,408340
6.81910,489007
6.82537,518225
6.83162,474716
6.83787,428920
6.84413,412256
6.85038,422220
6.85663,448715
6.86290,456443
6.86915,446713
6.87540,443912
6.88167,461438
6.88792,580296
6.89417,749920
6.90043,827983
6.90668,713202
6.91293,538095
6.91920,445886
6.92545,389821
6.93170,366459
6.93797,358922
6.94422,354701
6.95047,352971
6.95673,355310
6.96298,330761
6.96923,321902
6.97550,309563
6.98175,314269
6.98800,319125
6.99427,307332
7.00052,297262
7.00677,280347
7.01302,276120
7.01928,273753
7.02553,304209
7.03178,433270
7.03805,792629
7.04430,1727569
7.05055,3603029
7.05682,5888703
7.06307,6455269
7.06932,4327427
7.07558,1783482
7.08183,559113
7.08808,244995
7.09435,187090
7.10060,167525
7.10685,154317
7.11312,150011
7.11937,136591
7.12562,128529
7.13188,122672
7.13813,125614
7.14438,147950
7.15065,201728
7.15690,282790
7.16315,313589
7.16942,258751
7.17567,172931
7.18192,137547
7.18818,127390
7.19443,120269
7.20068,119433
7.20695,120960
7.21320,130625
7.21945,135645
7.22570,126081
7.23197,123564
7.23822,119020
7.24447,138429
7.25073,167074
7.25698,253953
7.26323,470940
7.26950,726839
7.27575,821647
7.28200,628081
7.28827,378070
7.29452,222834
7.30077,159819
7.30703,148141
7.31328,138665
7.31953,131979
7.32580,122148
7.33205,112466
7.33830,104340
7.34457,103898
7.35082,105941
7.35707,109234
7.36333,104944
7.36958,101493
7.37583,104509
7.38210,104246
7.38835,111097
7.39460,124970
7.40087,140878
7.40712,134226
7.41337,128040
7.41963,139261
7.42588,170314
7.43213,219582
7.43840,284020
7.44465,309130
7.45090,283250
7.45715,229697
7.46342,207946
7.46967,237928
7.47592,255484
7.48218,233828
7.48843,189925
7.49468,172032
7.50095,176494
7.50720,201195
7.51345,222459
7.51972,209955
7.52597,167932
7.53222,132845
7.53848,117960
7.54473,111355
7.55098,130765
7.55725,293485
7.56350,1057048
7.56975,3481272
7.57602,8478344
7.58227,1.449132E+07
7.58852,1.855868E+07
7.59478,1.6288E+07
7.60103,8259265
7.60728,2607838
7.61355,1013088
7.61980,669689
7.62605,572795
7.63232,535152
7.63857,464807
7.64482,332589
7.65108,232456
7.65733,188754
7.66358,169388
7.66983,169435
7.67610,192158
7.68235,252659
7.68860,309504
7.69487,305093
7.70112,252136
7.70737,191072
7.71363,185535
7.71988,240412
7.72613,328617
7.73240,367651
7.73865,346247
7.74490,306438
7.75117,258205
7.75742,209427
7.76367,163631
7.76993,143721
7.77618,135082
7.78243,131844
7.78870,139811
7.79495,138240
7.80120,131910
7.80747,131835
7.81372,129157
7.81997,138616
7.82623,172434
7.83248,247823
7.83873,325826
7.84500,321849
7.85125,258238
7.85750,210642
7.86377,214788
7.87002,260674
7.87627,279837
7.88252,250928
7.88878,213841
7.89503,198565
7.90128,217722
7.90755,240983
7.91380,252061
7.92005,268259
7.92632,268907
7.93257,254057
7.93882,238593
7.94508,232602
7.95133,257720
7.95758,310910
7.96385,348543
7.97010,346069
7.97635,302161
7.98262,282344
7.98887,301725
7.99512,398988
8.00138,611361
8.00763,866848
8.01388,1101664
8.02015,1540693
8.02640,2123730
8.03265,2230329
8.03892,1698241
8.04517,1044969
8.05142,815325
8.05768,839882
8.06393,846277
8.07018,671783
8.07645,436347
8.08270,298583
8.08895,299313
8.09522,370623
8.10147,431521
8.10772,477508
8.11397,570887
8.12023,766357
8.12648,902713
8.13273,785865
8.13900,480419
8.14525,267139
8.15150,189107
8.15777,164286
8.16402,149198
8.17027,150904
8.17653,137614
8.18278,127984
8.18903,121803
8.19530,116278
8.20155,114474
8.20780,108655
8.21407,110492
8.22032,118808
8.22657,135677
8.23283,170060
8.23908,216236
8.24533,242947
8.25160,215132
8.25785,183539
8.26410,158424
8.27037,153146
8.27662,154861
8.28287,164461
8.28913,184121
8.29538,200112
8.30163,185168
8.30790,162710
8.31415,129641
8.32040,107912
8.32665,101175
8.33292,95625
8.33917,94008
8.34542,96096
8.35168,99224
8.35793,102557
8.36418,111252
8.37045,105496
8.37670,103404
8.38295,97585
8.38922,98145
8.39547,109516
8.40172,144265
8.40798,234964
8.41423,359227
8.42048,398811
8.42675,311640
8.43300,206842
8.43925,161075
8.44552,150115
8.45177,164919
8.45802,178584
8.46428,174217
8.47053,153105
8.47678,137213
8.48305,129260
8.48930,125890
8.49555,124593
8.50182,127222
8.50807,144913
8.51432,139936
8.52058,138712
8.52683,117772
8.53308,105650
8.53935,99954
8.54560,100777
8.55185,101373
8.55810,122585
8.56437,179479
8.57062,299766
8.57687,467416
8.58313,673844
8.58938,972003
8.59563,1353280
8.60190,1490072
8.60815,1422105
8.61440,1987554
8.62067,4535718
8.62692,9719204
8.63317,1.473839E+07
8.63943,1.618401E+07
8.64568,1.082454E+07
8.65193,4038045
8.65820,985015
8.66445,309543
8.67070,204203
8.67697,184762
8.68322,184476
8.68947,181458
8.69573,195829
8.70198,206669
8.70823,208176
8.71450,212440
8.72075,223577
8.72700,210174
8.73327,185109
8.73952,165794
8.74577,160834
8.75203,178584
8.75828,180417
8.76453,157792
8.77078,123956
8.77705,109688
8.78330,108976
8.78955,111485
8.79582,108228
8.80207,102223
8.80832,98024
8.81458,93031
8.82083,99709
8.82708,107285
8.83335,192491
8.83960,522106
8.84585,1506123
8.85212,3703986
8.85837,7003488
8.86462,9903635
8.87088,1.013215E+07
8.87713,8113344
8.88338,5595601
8.88965,4912562
8.89590,5171262
8.90215,4857279
8.90842,2767236
8.91467,999195
8.92092,413151
8.92718,226294
8.93343,166905
8.93968,147206
8.94595,138625
8.95220,141394
8.95845,161387
8.96472,196994
8.97097,232712
8.97722,265791
8.98348,281979
8.98973,305801
8.99598,362701
9.00223,500636
9.00850,664450
9.01475,783630
9.02100,731040
9.02727,539286
9.03352,378842
9.03977,385986
9.04603,538386
9.05228,671201
9.05853,608005
9.06480,406331
9.07105,242487
9.07730,169765
9.08357,148737
9.08982,149669
9.09607,153627
9.10233,166260
9.10858,165347
9.11483,153136
9.12110,138441
9.12735,132473
9.13360,139172
9.13987,172127
9.14612,207053
9.15237,209849
9.15863,209842
9.16488,255905
9.17113,295548
9.17740,304253
9.18365,299486
9.18990,337434
9.19617,411802
9.20242,403092
9.20867,317594
9.21492,224305
9.22118,164728
9.22743,137965
9.23368,138157
9.23995,162649
9.24620,194504
9.25245,232857
9.25872,225590
9.26497,187097
9.27122,140391
9.27748,111588
9.28373,107136
9.28998,124148
9.29625,168170
9.30250,247314
9.30875,345269
9.31502,398314
9.32127,398127
9.32752,394378
9.33378,388314
9.34003,438694
9.34628,653694
9.35255,920547
9.35880,1001465
9.36505,790098
9.37132,495315
9.37757,451822
9.38382,1251230
9.39008,4124260
9.39633,9313218
9.40258,1.45062E+07
9.40885,1.596434E+07
9.41510,1.12742E+07
9.42135,4627947
9.42762,1267708
9.43387,767613
9.44012,1953364
9.44637,6090574
9.45263,1.37774E+07
9.45888,2.261587E+07
9.46513,2.660441E+07
9.47140,2.278084E+07
9.47765,1.323991E+07
9.48390,4830369
9.49017,1293240
9.49642,452902
9.50267,268769
9.50893,210701
9.51518,192508
9.52143,183810
9.52770,177529
9.53395,169159
9.54020,168807
9.54647,167892
9.55272,169778
9.55897,159088
9.56523,163331
9.57148,173611
9.57773,191911
9.58400,192998
9.59025,178203
9.59650,164683
9.60277,162577
9.60902,184308
9.61527,230238
9.62153,252625
9.62778,234112
9.63403,186265
9.64030,151108
9.64655,132249
9.65280,135421
9.65905,137726
9.66532,134099
9.67157,135772
9.67782,221854
9.68408,792512
9.69033,2894219
9.69658,7369416
9.70285,1.283329E+07
9.70910,1.564917E+07
9.71535,1.246267E+07
9.72162,6103503
9.72787,2447820
9.73412,2119412
9.74038,3067477
9.74663,3422824
9.75288,2646815
9.75915,1364682
9.76540,544376
9.77165,249957
9.77792,179813
9.78417,163759
9.79042,138032
9.79668,127623
9.80293,120395
9.80918,117857
9.81545,116615
9.82170,115433
9.82795,118222
9.83422,126546
9.84047,149746
9.84672,195301
9.85298,326737
9.85923,804855
9.86548,2501607
9.87173,6288187
9.87800,1.112466E+07
9.88425,1.384817E+07
9.89050,1.167196E+07
9.89677,5883297
9.90302,2118411
9.90927,1391780
9.91553,1588230
9.92178,1445670
9.92803,926116
9.93430,432287
9.94055,215726
9.94680,166614
9.95307,174444
9.95932,222567
9.96557,362673
9.97183,597793
9.97808,852812
9.98433,932509
9.99060,816499
9.99685,602267
10.00310,425830
10.00937,314120
10.01562,244279
10.02187,217499
10.02813,198193
10.03438,176714
10.04063,159884
10.04690,154137
10.05315,151296
10.05940,143682
10.06567,128429
10.07192,121758
10.07817,120119
10.08443,126446
10.09068,136694
10.09693,153846
10.10318,167378
10.10945,171959
10.11570,168128
10.12195,164791
10.12822,152624
10.13447,136870
10.14072,125988
10.14698,123790
10.15323,116714
10.15948,119497
10.16575,118496
10.17200,119353
10.17825,129262
10.18452,142011
10.19077,146918
10.19702,145500
10.20328,130662
10.20953,119999
10.21578,136474
10.22205,201658
10.22830,328887
10.23455,479631
10.24082,519321
10.24707,468032
10.25332,365930
10.25958,276930
10.26583,239105
10.27208,215575
10.27835,188905
10.28460,172545
10.29085,207651
10.29712,263094
10.30337,297141
10.30962,251771
10.31587,188111
10.32213,158725
10.32838,173991
10.33463,228656
10.34090,303927
10.34715,319768
10.35340,259869
10.35967,191587
10.36592,161274
10.37217,148481
10.37843,137146
10.38468,120631
10.39093,114384
10.39720,106198
10.40345,99567
10.40970,96890
10.41597,94993
10.42222,103595
10.42847,116834
10.43473,122397
10.44098,126767
10.44723,127645
10.45350,132683
10.45975,131555
10.46600,131008
10.47227,131564
10.47852,142656
10.48477,180852
10.49103,231275
10.49728,253018
10.50353,229680
10.50980,185794
10.51605,150379
10.52230,131777
10.52855,130558
10.53482,160247
10.54107,202822
10.54732,235963
10.55358,228789
10.55983,188353
10.56608,170359
10.57235,163444
10.57860,182096
10.58485,195144
10.59112,207371
10.59737,215978
10.60362,322705
10.60988,956246
10.61613,2951283
10.62238,6668183
10.62865,1.11005E+07
10.63490,1.319151E+07
10.64115,1.073575E+07
10.64742,5060014
10.65367,1581028
10.65992,447903
10.66618,213052
10.67243,179180
10.67868,189352
10.68495,196338
10.69120,187581
10.69745,160976
10.70372,136552
10.70997,123072
10.71622,124666
10.72248,125138
10.72873,133620
10.73498,145090
10.74125,156483
10.74750,161970
10.75375,156410
10.76000,145445
10.76627,145422
10.77252,145214
10.77877,152535
10.78503,164229
10.79128,176370
10.79753,177364
10.80380,180013
10.81005,201162
10.81630,282987
10.82257,402589
10.82882,451228
10.83507,369890
10.84133,245421
10.84758,171804
10.85383,147584
10.86010,154528
10.86635,159013
10.87260,166744
10.87887,159674
10.88512,152650
10.89137,154187
10.89763,164833
10.90388,182944
10.91013,209856
10.91640,212551
10.92265,196346
10.92890,167866
10.93517,163740
10.94142,154165
10.94767,137204
10.95393,127922
10.96018,154180
10.96643,320560
10.97268,1050911
10.97895,3054775
10.98520,7143733
10.99145,1.344628E+07
10.99772,1.986924E+07
11.00397,2.153167E+07
11.01022,1.611786E+07
11.01648,6720395
11.02273,1695652
11.02898,431524
11.03525,239498
11.04150,240238
11.04775,254269
11.05402,267091
11.06027,298420
11.06652,322114
11.07278,311244
11.07903,240170
11.08528,181744
11.09155,147590
11.09780,147020
11.10405,161704
11.11032,168394
11.11657,164147
11.12282,166967
11.12908,170539
11.13533,185275
11.14158,193879
11.14785,199608
11.15410,222658
11.16035,300270
11.16662,443945
11.17287,580943
11.17912,576756
11.18538,444920
11.19163,282575
11.19788,182362
11.20413,155020
11.21040,161637
11.21665,186352
11.22290,205847
11.22917,210560
11.23542,195013
11.24167,180289
11.24793,183568
11.25418,206379
11.26043,225138
11.26670,222412
11.27295,218576
11.27920,240486
11.28547,280139
11.29172,291812
11.29797,257555
11.30423,200951
11.31048,167185
11.31673,174771
11.32300,237081
11.32925,367444
11.33550,497250
11.34177,506400
11.34802,380890
11.35427,225245
11.36053,146702
11.36678,131302
11.37303,127066
11.37930,132103
11.38555,120989
11.39180,117083
11.39807,124917
11.40432,131181
11.41057,137000
11.41682,145502
11.42308,142159
11.42933,142889
11.43558,164432
11.44185,251305
11.44810,423540
11.45435,627900
11.46062,696385
11.46687,567984
11.47312,349503
11.47938,217068
11.48563,169396
11.49188,159055
11.49815,149443
11.50440,144658
11.51065,138217
11.51692,137916
11.52317,126738
11.52942,124554
11.53568,118960
11.54193,123626
11.54818,121573
11.55445,123126
11.56070,122575
11.56695,114952
11.57322,110815
11.57947,112561
11.58572,118091
11.59198,122228
11.59823,127177
11.60448,133350
11.61075,126087
11.61700,128949
11.62325,126427
11.62952,128815
11.63577,127708
11.64202,128150
11.64827,139185
11.65453,155058
11.66078,176538
11.66703,176582
11.67330,165557
11.67955,151611
11.68580,140226
11.69207,133009
11.69832,140770
11.70457,165637
11.71083,196979
11.71708,256919
11.72333,306418
11.72960,306419
11.73585,266295
11.74210,216365
11.74837,182002
11.75462,160917
11.76087,153819
11.76713,156757
11.77338,171070
11.77963,193086
11.78590,196666
11.79215,198107
11.79840,201986
11.80467,205668
11.81092,206251
11.81717,197507
11.82343,188283
11.82968,216316
11.83593,333312
11.84220,519215
11.84845,673251
11.85470,647293
11.86095,460114
11.86722,310265
11.87347,218372
11.87972,193896
11.88598,215983
11.89223,278795
11.89848,345981
11.90475,384071
11.91100,360451
11.91725,300445
11.92352,236821
11.92977,210459
11.93602,211571
11.94228,313489
11.94853,595220
11.95478,1265772
11.96105,2584635
11.96730,4343620
11.97355,5816108
11.97982,5367634
11.98607,3048472
11.99232,1236442
11.99858,467227
12.00483,296019
12.01108,284822
12.01735,281981
12.02360,276879
12.02985,286873
12.03612,294060
12.04237,352602
12.04862,471190
12.05488,652386
12.06113,817945
12.06738,867196
12.07365,748366
12.07990,534681
12.08615,394402
12.09240,360437
12.09867,372114
12.10492,384418
12.11117,348002
12.11743,293777
12.12368,242913
12.12993,208683
12.13620,191479
12.14245,185935
12.14870,185596
12.15497,174244
12.16122,166913
12.16747,168900
12.17373,168587
12.17998,169171
12.18623,175264
12.19250,198276
12.19875,235557
12.20500,293463
12.21127,373829
12.21752,442162
12.22377,465837
12.23003,416517
12.23628,355187
12.24253,341086
12.24880,419138
12.25505,587661
12.26130,889904
12.26757,1259226
12.27382,1643507
12.28007,1805850
12.28633,1619968
12.29258,1118486
12.29883,637512
12.30508,333236
12.31135,212485
12.31760,165571
12.32385,149757
12.33012,145148
12.33637,151123
12.34262,170837
12.34888,194290
12.35513,219362
12.36138,236650
12.36765,239083
12.37390,235031
12.38015,237631
12.38642,264935
12.39267,328619
12.39892,375906
12.40518,339669
12.41143,263571
12.41768,215693
12.42395,196825
12.43020,211243
12.43645,243568
12.44272,284785
12.44897,276271
12.45522,245249
12.46148,213899
12.46773,215135
12.47398,280546
12.48025,489389
12.48650,914705
12.49275,1585476
12.49902,2414427
12.50527,2799611
12.51152,2395329
12.51777,1349101
12.52403,604082
12.53028,290525
12.53653,222630
12.54280,247782
12.54905,305054
12.55530,330269
12.56157,304071
12.56782,271870
12.57407,333261
12.58033,540989
12.58658,1004388
12.59283,1654218
12.59910,2134914
12.60535,2153311
12.61160,1847315
12.61787,1842437
12.62412,2477019
12.63037,3585081
12.63663,5103275
12.64288,6837070
12.64913,9163334
12.65540,1.21527E+07
12.66165,1.643573E+07
12.66790,2.116719E+07
12.67417,2.627586E+07
12.68042,2.785743E+07
12.68667,2.738668E+07
12.69293,2.266662E+07
12.69918,1.079537E+07
12.70543,2514280
12.71170,737761
12.71795,564120
12.72420,640687
12.73047,721637
12.73672,772357
12.74297,830421
12.74922,869017
12.75548,786282
12.76173,639370
12.76798,506517
12.77425,421137
12.78050,360336
12.78675,343729
12.79302,331825
12.79927,325964
12.80552,310021
12.81178,281462
12.81803,260802
12.82428,252064
12.83055,249279
12.83680,248935
12.84305,243102
12.84932,234571
12.85557,227660
12.86182,219091
12.86808,219766
12.87433,219206
12.88058,231576
12.88685,285655
12.89310,417665
12.89935,596251
12.90562,736591
12.91187,675481
12.91812,532293
12.92438,365410
12.93063,270420
12.93688,224962
12.94315,209582
12.94940,190406
12.95565,187828
12.96190,178674
12.96817,170759
12.97442,162400
12.98067,163396
12.98693,169789
12.99318,180030
12.99943,194753
13.00570,209401
13.01195,232928
13.01820,256503
13.02447,314246
13.03072,418752
13.03697,588643
13.04323,716381
13.04948,704139
13.05573,540734
13.06200,375067
13.06825,415013
13.07450,680966
13.08077,1358946
13.08702,2473238
13.09327,3412711
13.09953,3511686
13.10578,2483642
13.11203,1280486
13.11830,623337
13.12455,402410
13.13080,330809
13.13707,303675
13.14332,289879
13.14957,280409
13.15583,262806
13.16208,245614
13.16833,221801
13.17458,206563
13.18085,196926
13.18710,179945
13.19335,174226
13.19962,172240
13.20587,176582
13.21212,179434
13.21838,182309
13.22463,191113
13.23088,205849
13.23715,222323
13.24340,253719
13.24965,257436
13.25592,254386
13.26217,268744
13.26842,292452
13.27468,311684
13.28093,289947
13.28718,263876
13.29345,267374
13.29970,308523
13.30595,426520
13.31222,586092
13.31847,725363
13.32472,676766
13.33098,482955
13.33723,318405
13.34348,243666
13.34975,234657
13.35600,257304
13.36225,261787
13.36852,242095
13.37477,217712
13.38102,194916
13.38728,179400
13.39353,173817
13.39978,165093
13.40603,174332
13.41230,177472
13.41855,185361
13.42480,202061
13.43107,234729
13.43732,275454
13.44357,297669
13.44983,306414
13.45608,289586
13.46233,256281
13.46860,225199
13.47485,206095
13.48110,206889
13.48737,215054
13.49362,224421
13.49987,228506
13.50613,221173
13.51238,214763
13.51863,210333
13.52490,214649
13.53115,228189
13.53740,235450
13.54367,254479
13.54992,300455
13.55617,393482
13.56243,494385
13.56868,529846
13.57493,485181
13.58120,412463
13.58745,392957
13.59370,440807
13.59997,599714
13.60622,798287
13.61247,968316
13.61873,933459
13.62498,770359
13.63123,576049
13.63748,456911
13.64375,360307
13.65000,312220
13.65625,290446
13.66252,290671
13.66877,283070
13.67502,276278
13.68128,276994
13.68753,292528
13.69378,319764
13.70005,335060
13.70630,332841
13.71255,302504
13.71882,268809
13.72507,255273
13.73132,248659
13.73758,253858
13.74383,265225
13.75008,288501
13.75635,385725
13.76260,678480
13.76885,1176771
13.77512,1626298
13.78137,1536738
13.78762,1067891
13.79388,624875
13.80013,528588
13.80638,802940
13.81265,1602028
13.81890,3122450
13.82515,5194785
13.83142,8562985
13.83767,1.377168E+07
13.84392,1.838297E+07
13.85017,2.008256E+07
13.85643,1.421754E+07
13.86268,5347941
13.86893,1313210
13.87520,444732
13.88145,336439
13.88770,459247
13.89397,821541
13.90022,1573982
13.90647,2999073
13.91273,5328513
13.91898,8102460
13.92523,9910288
13.93150,8516675
13.93775,4652431
13.94400,1704313
13.95027,502107
13.95652,228623
13.96277,187739
13.96903,192397
13.97528,188584
13.98153,189429
13.98780,189630
13.99405,189390
14.00030,196039
14.00657,208540
14.01282,228504
14.01907,257761
14.02533,256284
14.03158,227219
14.03783,181350
14.04410,157714
14.05035,142071
14.05660,147970
14.06287,157556
14.06912,176709
14.07537,206762
14.08162,218685
14.08788,207192
14.09413,180318
14.10038,158404
14.10665,141569
14.11290,132793
14.11915,134907
14.12542,145525
14.13167,152494
14.13792,157382
14.14418,153748
14.15043,138087
14.15668,135005
14.16295,141185
14.16920,140630
14.17545,134354
14.18172,126828
14.18797,120918
14.19422,118998
14.20048,124059
14.20673,127147
14.21298,129818
14.21925,144651
14.22550,160663
14.23175,181907
14.23802,207466
14.24427,211545
14.25052,195099
14.25678,184988
14.26303,196340
14.26928,254575
14.27555,384578
14.28180,559811
14.28805,595222
14.29430,488820
14.30057,348546
14.30682,263064
14.31307,224351
14.31933,215565
14.32558,229070
14.33183,270576
14.33810,294385
14.34435,277016
14.35060,230275
14.35687,192317
14.36312,170184
14.36937,167293
14.37563,171118
14.38188,176642
14.38813,186671
14.39440,206221
14.40065,268199
14.40690,428546
14.41317,897268
14.41942,1940347
14.42567,3388118
14.43193,4520219
14.43818,4163554
14.44443,2813534
14.45070,1700244
14.45695,1157776
14.46320,963226
14.46947,932037
14.47572,954346
14.48197,979374
14.48823,999658
14.49448,862560
14.50073,657933
14.50698,445173
14.51325,290668
14.51950,226614
14.52575,200297
14.53202,204227
14.53827,208779
14.54452,203231
14.55078,202971
14.55703,212575
14.56328,210922
14.56955,223278
14.57580,239836
14.58205,250027
14.58832,245511
14.59457,208180
14.60082,191054
14.60708,181945
14.61333,188514
14.61958,190394
14.62585,198438
14.63210,202522
14.63835,215473
14.64462,270803
14.65087,362814
14.65712,449767
14.66338,454724
14.66963,393803
14.67588,320994
14.68215,268026
14.68840,251226
14.69465,257524
14.70092,281594
14.70717,322278
14.71342,364059
14.71968,418049
14.72593,551611
14.73218,847335
14.73843,1383469
14.74470,1972906
14.75095,2259302
14.75720,2268957
14.76347,2244167
14.76972,2333865
14.77597,1976691
14.78223,1260701
14.78848,648305
14.79473,446503
14.80100,700826
14.80725,1657953
14.81350,3531800
14.81977,5636328
14.82602,5692874
14.83227,3651595
14.83853,1553847
14.84478,569728
14.85103,272104
14.85730,219069
14.86355,240320
14.86980,280869
14.87607,315346
14.88232,306945
14.88857,289233
14.89483,246437
14.90108,221068
14.90733,217060
14.91360,267317
14.91985,372710
14.92610,507946
14.93237,580395
14.93862,574459
14.94487,509856
14.95112,418441
14.95738,361195
14.96363,397236
14.96988,563843
14.97615,975090
14.98240,1600228
14.98865,2001302
14.99492,1847069
15.00117,1317458
15.00742,687781
15.01368,379666
15.01993,275575
15.02618,232300
15.03245,220820
15.03870,218665
15.04495,235355
15.05122,256200
15.05747,273505
15.06372,290078
15.06998,281307
15.07623,276205
15.08248,261323
15.08875,258167
15.09500,286931
15.10125,339929
15.10752,375885
15.11377,403604
15.12002,444294
15.12628,529165
15.13253,641172
15.13878,787339
15.14505,919664
15.15130,1048690
15.15755,1124663
15.16380,1380849
15.17007,2277138
15.17632,4082012
15.18257,5758352
15.18883,5937619
15.19508,4310414
15.20133,2133699
15.20760,890992
15.21385,445062
15.22010,307600
15.22637,235906
15.23262,192848
15.23887,182250
15.24513,188994
15.25138,194127
15.25763,204044
15.26390,220684
15.27015,215542
15.27640,200152
15.28267,187079
15.28892,173523
15.29517,173595
15.30143,182132
15.30768,187865
15.31393,196843
15.32020,219493
15.32645,269871
15.33270,305683
15.33897,310129
15.34522,269811
15.35147,225581
15.35773,208395
15.36398,231957
15.37023,268279
15.37650,291228
15.38275,259015
15.38900,215937
15.39525,182374
15.40152,168991
15.40777,160318
15.41402,158318
15.42028,161755
15.42653,183985
15.43278,238927
15.43905,310323
15.44530,385046
15.45155,465219
15.45782,572612
15.46407,642728
15.47032,622548
15.47658,514628
15.48283,375203
15.48908,280290
15.49535,214531
15.50160,201076
15.50785,228072
15.51412,307362
15.52037,517342
15.52662,1132385
15.53288,2367648
15.53913,4411011
15.54538,6573379
15.55165,8457643
15.55790,1.092123E+07
15.56415,1.440588E+07
15.57042,1.775675E+07
15.57667,1.763078E+07
15.58292,1.042038E+07
15.58918,3264139
15.59543,963960
15.60168,534748
15.60793,428457
15.61420,393932
15.62045,381555
15.62670,369906
15.63297,349209
15.63922,331068
15.64547,318988
15.65173,302773
15.65798,275556
15.66423,261130
15.67050,263272
15.67675,279597
15.68300,303921
15.68927,329864
15.69552,332410
15.70177,296989
15.70803,266830
15.71428,245490
15.72053,223860
15.72680,199985
15.73305,186966
15.73930,186266
15.74557,191399
15.75182,203969
15.75807,212144
15.76433,203416
15.77058,183023
15.77683,162182
15.78310,145744
15.78935,139557
15.79560,144973
15.80187,146861
15.80812,157448
15.81437,152509
15.82062,155809
15.82688,163611
15.83313,183228
15.83938,227771
15.84565,313944
15.85190,431705
15.85815,496699
15.86442,441581
15.87067,309608
15.87692,225649
15.88318,192140
15.88943,184644
15.89568,184690
15.90195,175158
15.90820,166657
15.91445,152249
15.92072,146294
15.92697,140574
15.93322,147249
15.93948,146897
15.94573,150117
15.95198,144956
15.95825,139716
15.96450,143626
15.97075,147391
15.97702,153574
15.98327,157021
15.98952,144046
15.99578,130200
16.00203,126542
16.00828,137900
16.01455,171260
16.02080,239275
16.02705,347029
16.03332,441789
16.03957,536531
16.04582,624289
16.05207,780971
16.05833,897404
16.06458,870157
16.07083,708947
16.07710,519588
16.08335,498212
16.08960,646566
16.09587,798902
16.10212,885398
16.10837,864812
16.11463,955225
16.12088,1359418
16.12713,2084347
16.13340,2776574
16.13965,2902638
16.14590,2123005
16.15217,1199065
16.15842,589288
16.16467,348373
16.17093,295644
16.17718,282083
16.18343,266760
16.18970,267665
16.19595,310885
16.20220,369193
16.20847,401583
16.21472,376836
16.22097,339276
16.22723,435393
16.23348,853636
16.23973,1697965
16.24600,2492725
16.25225,2650677
16.25850,1937588
16.26475,986060
16.27102,460420
16.27727,275633
16.28352,221540
16.28978,214639
16.29603,255904
16.30228,414145
16.30855,772631
16.31480,1219028
16.32105,1400443
16.32732,1099713
16.33357,672118
16.33982,362249
16.34608,240303
16.35233,193122
16.35858,182388
16.36485,181527
16.37110,181057
16.37735,178651
16.38362,175727
16.38987,168271
16.39612,163817
16.40238,159173
16.40863,166365
16.41488,169654
16.42115,172757
16.42740,174360
16.43365,188926
16.43992,227439
16.44617,299000
16.45242,417569
16.45868,518816
16.46493,495726
16.47118,449901
16.47745,387195
16.48370,352288
16.48995,310416
16.49620,271329
16.50247,238923
16.50872,236269
16.51497,252097
16.52123,302136
16.52748,382679
16.53373,464315
16.54000,490896
16.54625,476807
16.55250,438797
16.55877,400433
16.56502,377354
16.57127,355726
16.57753,314421
16.58378,302233
16.59003,293273
16.59630,291640
16.60255,297061
16.60880,293051
16.61507,286881
16.62132,289939
16.62757,295824
16.63383,307745
16.64008,322824
16.64633,348051
16.65260,396110
16.65885,441452
16.66510,442315
16.67137,406197
16.67762,394640
16.68387,400920
16.69013,408678
16.69638,391640
16.70263,340816
16.70888,298765
16.71515,261411
16.72140,235974
16.72765,230104
16.73392,227181
16.74017,235348
16.74642,236208
16.75268,255247
16.75893,266336
16.76518,291178
16.77145,346291
16.77770,474466
16.78395,678206
16.79022,960470
16.79647,1193865
16.80272,1691212
16.80898,2700078
16.81523,3910612
16.82148,5214644
16.82775,6449356
16.83400,7496759
16.84025,9083288
16.84652,1.106962E+07
16.85277,1.31362E+07
16.85902,1.339345E+07
16.86528,1.159452E+07
16.87153,8997417
16.87778,6065734
16.88405,4423518
16.89030,3764148
16.89655,3339896
16.90282,3095480
16.90907,2911289
16.91532,2750255
16.92158,2620197
16.92783,2844051
16.93408,3234348
16.94033,3679451
16.94660,4122874
16.95285,4146254
16.95910,4065072
16.96537,3791476
16.97162,3348744
16.97787,2719576
16.98413,2199391
16.99038,1748263
16.99663,1472380
17.00290,1403940
17.00915,1693301
17.01540,2906374
17.02167,5671104
17.02792,1.082047E+07
17.03417,1.696266E+07
17.04043,2.305777E+07
17.04668,2.831484E+07
17.05293,3.260781E+07
17.05920,3.885682E+07
17.06545,4.42272E+07
17.07170,4.723824E+07
17.07797,4.78103E+07
17.08422,4.624596E+07
17.09047,4.42531E+07
17.09673,4.145182E+07
17.10298,3.911219E+07
17.10923,3.691986E+07
17.11550,3.578306E+07
17.12175,3.513704E+07
17.12800,3.715773E+07
17.13427,3.424546E+07
17.14052,8392629
17.14677,7195594
17.15302,6837638
17.15928,7273646
17.16553,1.079578E+07
17.17178,1.845978E+07
17.17805,2.961226E+07
17.18430,3.924005E+07
17.19055,4.312781E+07
17.19682,3.941E+07
17.20307,2.076517E+07
17.20932,6727751
17.21558,3483015
17.22183,3823384
17.22808,4950334
17.23435,5839328
17.24060,7061439
17.24685,1.015237E+07
17.25312,1.687604E+07
17.25937,2.763085E+07
17.26562,3.911756E+07
17.27188,4.655864E+07
17.27813,4.839252E+07
17.28438,4.70187E+07
17.29065,3.618014E+07
17.29690,1.41613E+07
17.30315,9106903
17.30942,1.19718E+07
17.31567,1.521161E+07
17.32192,1.446907E+07
17.32818,9155988
17.33443,4286199
17.34068,1954071
17.34695,1310318
17.35320,1133231
17.35945,1052750
17.36572,993582
17.37197,946589
17.37822,907168
17.38447,882581
17.39073,860663
17.39698,902225
17.40323,920909
17.40950,1035330
17.41575,1209814
17.42200,1329534
17.42827,1324329
17.43452,1128655
17.44077,1083662
17.44703,1207985
17.45328,1737284
17.45953,2674043
17.46580,3748570
17.47205,4098258
17.47830,3269100
17.48457,2127861
17.49082,1221056
17.49707,804811
17.50333,693897
17.50958,735938
17.51583,810744
17.52210,993964
17.52835,1156634
17.53460,1154985
17.54087,948332
17.54712,747089
17.55337,675063
17.55963,750919
17.56588,1018225
17.57213,1775603
17.57840,3755979
17.58465,7371152
17.59090,1.135755E+07
17.59715,1.265645E+07
17.60342,9962014
17.60967,5038503
17.61592,2151067
17.62218,1103845
17.62843,877394
17.63468,847392
17.64095,790694
17.64720,691616
17.65345,597009
17.65972,542625
17.66597,508047
17.67222,496001
17.67848,476247
17.68473,475532
17.69098,490231
17.69725,518352
17.70350,616101
17.70975,771419
17.71602,972613
17.72227,1039064
17.72852,914627
17.73478,679806
17.74103,507493
17.74728,462673
17.75355,474460
17.75980,508306
17.76605,528301
17.77232,570376
17.77857,662322
17.78482,883591
17.79108,1339342
17.79733,2461148
17.80358,4673615
17.80983,7476018
17.81610,9997256
17.82235,9380450
17.82860,6922323
17.83487,4257133
17.84112,2512868
17.84737,1622174
17.85363,1261336
17.85988,1069145
17.86613,1282898
17.87240,2500748
17.87865,5297120
17.88490,9118797
17.89117,1.196901E+07
17.89742,1.025074E+07
17.90367,6000714
17.90993,2651096
17.91618,1212979
17.92243,784452
17.92870,651670
17.93495,583746
17.94120,553053
17.94747,512346
17.95372,492608
17.95997,467179
17.96623,464990
17.97248,468139
17.97873,473429
17.98500,474130
17.99125,498224
17.99750,536417
18.00377,609414
18.01002,699656
18.01627,821924
18.02253,848541
18.02878,756301
18.03503,620534
18.04128,512588
18.04755,452414
18.05380,433560
18.06005,406188
18.06632,382521
18.07257,358770
18.07882,341653
18.08508,344540
18.09133,359908
18.09758,421554
18.10385,521624
18.11010,704901
18.11635,837010
18.12262,904680
18.12887,896924
18.13512,965248
18.14138,1566504
18.14763,2877805
18.15388,4121833
18.16015,4219177
18.16640,2936863
18.17265,1490166
18.17892,716418
18.18517,442328
18.19142,353233
18.19768,318334
18.20393,304117
18.21018,297169
18.21645,312084
18.22270,335642
18.22895,363419
18.23522,363270
18.24147,338366
18.24772,316861
18.25397,315004
18.26023,307654
18.26648,319393
18.27273,333235
18.27900,365686
18.28525,408828
18.29150,480998
18.29777,676359
18.30402,1008105
18.31027,1322722
18.31653,1320094
18.32278,1111736
18.32903,836343
18.33530,575843
18.34155,411155
18.34780,305951
18.35407,273099
18.36032,261647
18.36657,272740
18.37283,283048
18.37908,286560
18.38533,302682
18.39160,337430
18.39785,394215
18.40410,416081
18.41037,399254
18.41662,363721
18.42287,343923
18.42913,329673
18.43538,314223
18.44163,299484
18.44790,296442
18.45415,282328
18.46040,257969
18.46665,241684
18.47292,231640
18.47917,228341
18.48542,229835
18.49168,220105
18.49793,220481
18.50418,219612
18.51045,220780
18.51670,228529
18.52295,225285
18.52922,227693
18.53547,223213
18.54172,226722
18.54798,228130
18.55423,238300
18.56048,245303
18.56675,258120
18.57300,266213
18.57925,259338
18.58552,253948
18.59177,236189
18.59802,228929
18.60428,234749
18.61053,254889
18.61678,289210
18.62305,330770
18.62930,343130
18.63555,313020
18.64182,281153
18.64807,273979
18.65432,273368
18.66058,268557
18.66683,265389
18.67308,266531
18.67935,284303
18.68560,274330
18.69185,260026
18.69810,246646
18.70437,241912
18.71062,262479
18.71687,300742
18.72313,335965
18.72938,338154
18.73563,312860
18.74190,264629
18.74815,240603
18.75440,230098
18.76067,222582
18.76692,219975
18.77317,212806
18.77943,208081
18.78568,203548
18.79193,203761
18.79820,202055
18.80445,200414
18.81070,210738
18.81697,216553
18.82322,217826
18.82947,221828
18.83573,212921
18.84198,207951
18.84823,204956
18.85450,199376
18.86075,214204
18.86700,246621
18.87327,368941
18.87952,714896
18.88577,1762560
18.89203,4604960
18.89828,1.029748E+07
18.90453,1.64476E+07
18.91078,1.978221E+07
18.91705,1.755741E+07
18.92330,1.037809E+07
18.92955,4178613
18.93582,1303913
18.94207,482516
18.94832,309486
18.95458,277223
18.96083,250770
18.96708,229256
18.97335,214289
18.97960,204017
18.98585,197465
18.99212,201349
18.99837,194505
19.00462,207039
19.01088,221013
19.01713,229995
19.02338,229295
19.02965,225425
19.03590,212549
19.04215,208120
19.04842,227125
19.05467,251357
19.06092,260581
19.06718,246244
19.07343,223741
19.07968,215585
19.08595,211058
19.09220,219300
19.09845,232715
19.10472,256876
19.11097,258964
19.11722,254272
19.12347,249957
19.12973,250978
19.13598,262647
19.14223,272643
19.14850,282181
19.15475,269047
19.16100,244589
19.16727,225302
19.17352,211762
19.17977,195786
19.18603,191746
19.19228,184074
19.19853,195421
19.20480,191571
19.21105,197119
19.21730,193712
19.22357,193853
19.22982,188151
19.23607,179541
19.24233,170544
19.24858,164843
19.25483,163428
19.26110,162627
19.26735,161418
19.27360,159537
19.27987,156785
19.28612,161189
19.29237,166729
19.29863,168695
19.30488,175594
19.31113,172170
19.31740,164959
19.32365,154059
19.32990,151361
19.33617,150812
19.34242,159854
19.34867,172100
19.35492,197319
19.36118,214740
19.36743,219995
19.37368,218087
19.37995,201616
19.38620,195260
19.39245,190900
19.39872,201514
19.40497,216725
19.41122,228147
19.41748,233321
19.42373,227432
19.42998,209422
19.43625,192411
19.44250,182564
19.44875,184250
19.45502,188405
19.46127,179368
19.46752,181145
19.47378,170810
19.48003,167797
19.48628,168356
19.49255,177709
19.49880,184528
19.50505,196924
19.51132,200660
19.51757,202604
19.52382,212488
19.53008,217448
19.53633,215742
19.54258,213917
19.54885,224964
19.55510,241963
19.56135,263233
19.56760,270841
19.57387,258764
19.58012,231131
19.58637,201891
19.59263,184259
19.59888,177273
19.60513,174658
19.61140,169466
19.61765,169999
19.62390,165936
19.63017,169112
19.63642,183568
19.64267,210057
19.64893,231949
19.65518,230801
19.66143,216552
19.66770,202017
19.67395,219726
19.68020,255913
19.68647,294833
19.69272,316977
19.69897,293115
19.70523,265214
19.71148,259953
19.71773,276409
19.72400,279657
19.73025,266099
19.73650,241037
19.74277,229534
19.74902,228347
19.75527,223573
19.76153,217539
19.76778,216458
19.77403,233019
19.78030,249071
19.78655,259972
19.79280,254747
19.79905,234207
19.80532,233986
19.81157,234976
19.81782,233753
19.82408,215259
19.83033,190945
19.83658,173407
19.84285,160671
19.84910,157752
19.85535,171250
19.86162,188535
19.86787,202198
19.87412,228446
19.88038,240814
19.88663,238159
19.89288,209937
19.89915,203097
19.90540,223851
19.91165,363229
19.91792,854397
19.92417,2089878
19.93042,3826264
19.93668,5235777
19.94293,5074448
19.94918,3097643
19.95545,1477228
19.96170,619892
19.96795,348045
19.97422,326113
19.98047,372839
19.98672,428556
19.99298,451358
19.99923,431922
20.00548,356883
20.01173,297350
20.01800,245897
20.02425,225170
20.03050,219051
20.03677,205858
20.04302,201607
20.04927,205556
20.05553,221831
20.06178,242741
20.06803,244258
20.07430,227748
20.08055,196852
20.08680,182310
20.09307,178155
20.09932,187499
20.10557,204002
20.11183,203206
20.11808,197364
20.12433,179382
20.13060,164479
20.13685,163081
20.14310,162994
20.14937,166881
20.15562,170356
20.16187,171084
20.16813,177894
20.17438,170891
20.18063,166351
20.18690,165348
20.19315,168449
20.19940,170444
20.20567,183337
20.21192,195049
20.21817,198895
20.22443,207139
20.23068,215080
20.23693,216920
20.24318,218274
20.24945,211036
20.25570,193594
20.26195,191839
20.26822,183167
20.27447,185036
20.28072,182267
20.28698,184347
20.29323,217645
20.29948,314415
20.30575,514428
20.31200,740492
20.31825,893642
20.32452,814129
20.33077,571210
20.33702,366694
20.34328,259411
20.34953,233140
20.35578,229526
20.36205,227337
20.36830,218597
20.37455,204698
20.38082,195529
20.38707,190578
20.39332,186196
20.39958,183343
20.40583,181279
20.41208,171785
20.41835,178357
20.42460,197907
20.43085,243882
20.43712,396823
20.44337,705339
20.44962,1107837
20.45587,1364717
20.46213,1250280
20.46838,865215
20.47463,546102
20.48090,405466
20.48715,433967
20.49340,529224
20.49967,587162
20.50592,526661
20.51217,399567
20.51843,315274
20.52468,259290
20.53093,244985
20.53720,234621
20.54345,238848
20.54970,248929
20.55597,290869
20.56222,327990
20.56847,358732
20.57473,355779
20.58098,300404
20.58723,266121
20.59350,269402
20.59975,290072
20.60600,307555
20.61227,300774
20.61852,287201
20.62477,250010
20.63103,226346
20.63728,199124
20.64353,182769
20.64980,185107
20.65605,195190
20.66230,207420
20.66857,222719
20.67482,244760
20.68107,272431
20.68732,298007
20.69358,307942
20.69983,284453
20.70608,255819
20.71235,251662
20.71860,306311
20.72485,472654
20.73112,699648
20.73737,859167
20.74362,850753
20.74988,645883
20.75613,462898
20.76238,375149
20.76865,427074
20.77490,581417
20.78115,717765
20.78742,715413
20.79367,587538
20.79992,444089
20.80618,334957
20.81243,282571
20.81868,252510
20.82495,228584
20.83120,217796
20.83745,219225
20.84372,240428
20.84997,253183
20.85622,251948
20.86248,242722
20.86873,229594
20.87498,223468
20.88125,209294
20.88750,205235
20.89375,219224
20.90000,234605
20.90627,249795
20.91252,262421
20.91877,266304
20.92503,269741
20.93128,276084
20.93753,299756
20.94380,401049
20.95005,608626
20.95630,867043
20.96257,963829
20.96882,818816
20.97507,627432
20.98133,471592
20.98758,384491
20.99383,335889
21.00010,298225
21.00635,302168
21.01260,391650
21.01887,550360
21.02512,663663
21.03137,669065
21.03763,574515
21.04388,448052
21.05013,373740
21.05640,324933
21.06265,291801
21.06890,256332
21.07517,244935
21.08142,247888
21.08767,274454
21.09393,290671
21.10018,271055
21.10643,248483
21.11268,217709
21.11895,206974
21.12520,205923
21.13145,209848
21.13772,203774
21.14397,199556
21.15022,188239
21.15648,189989
21.16273,185360
21.16898,186070
21.17525,201439
21.18150,214764
21.18775,221634
21.19402,221999
21.20027,207777
21.20652,207449
21.21278,203789
21.21903,208738
21.22528,212845
21.23155,211762
21.23780,218270
21.24405,231709
21.25032,255092
21.25657,269075
21.26282,263422
21.26908,242632
21.27533,227018
21.28158,240756
21.28785,288559
21.29410,326824
21.30035,343537
21.30662,313356
21.31287,274293
21.31912,234076
21.32537,211641
21.33163,218370
21.33788,226339
21.34413,226837
21.35040,219598
21.35665,206172
21.36290,205804
21.36917,226165
21.37542,265231
21.38167,318264
21.38793,321612
21.39418,300291
21.40043,252058
21.40670,214169
21.41295,194526
21.41920,188709
21.42547,184313
21.43172,180269
21.43797,175405
21.44423,177659
21.45048,196903
21.45673,219359
21.46300,263102
21.46925,326028
21.47550,400787
21.48177,417868
21.48802,386157
21.49427,331783
21.50053,294079
21.50678,290354
21.51303,283156
21.51930,272086
21.52555,240812
21.53180,204171
21.53807,186927
21.54432,176329
21.55057,172979
21.55682,171777
21.56308,165453
21.56933,167528
21.57558,176854
21.58185,189228
21.58810,204531
21.59435,231437
21.60062,279624
21.60687,340264
21.61312,366947
21.61938,333525
21.62563,261280
21.63188,208096
21.63815,176568
21.64440,157362
21.65065,145340
21.65692,143048
21.66317,133021
21.66942,132936
21.67568,139404
21.68193,140608
21.68818,149393
21.69445,154560
21.70070,155157
21.70695,148982
21.71322,141204
21.71947,140964
21.72572,132162
21.73198,137347
21.73823,139871
21.74448,139390
21.75075,139999
21.75700,144643
21.76325,144806
21.76950,148262
21.77577,150240
21.78202,151586
21.78827,155278
21.79453,168888
21.80078,186468
21.80703,195512
21.81330,194734
21.81955,193287
21.82580,182729
21.83207,169961
21.83832,173259
21.84457,174234
21.85083,182566
21.85708,193303
21.86333,208125
21.86960,222382
21.87585,233307
21.88210,234423
21.88837,219953
21.89462,192891
21.90087,185577
21.90713,191633
21.91338,223897
21.91963,273505
21.92590,305131
21.93215,290954
21.93840,266139
21.94467,235904
21.95092,219886
21.95717,210691
21.96343,193041
21.96968,166641
21.97593,152509
21.98218,149886
21.98845,147980
21.99470,148886
22.00095,152364
22.00722,153906
22.01347,154513
22.01972,155768
22.02598,156101
22.03223,156735
22.03848,179699
22.04475,201702
22.05100,236444
22.05725,253758
22.06352,277370
22.06977,287693
22.07602,307678
22.08228,325712
22.08853,340157
22.09478,334633
22.10105,298487
22.10730,254316
22.11355,223075
22.11982,201139
22.12607,189510
22.13232,195544
22.13858,202585
22.14483,200011
22.15108,192876
22.15735,190154
22.16360,184181
22.16985,183530
22.17612,178752
22.18237,177833
22.18862,175936
22.19488,175682
22.20113,185032
22.20738,185168
22.21363,176596
22.21990,167130
22.22615,168794
22.23240,160219
22.23867,162970
22.24492,168754
22.25117,181929
22.25743,212879
22.26368,256168
22.26993,324894
22.27620,341830
22.28245,336347
22.28870,312155
22.29497,292612
22.30122,284573
22.30747,269154
22.31373,256563
22.31998,237151
22.32623,220762
22.33250,216711
22.33875,218639
22.34500,221796
22.35127,225603
22.35752,274097
22.36377,447585
22.37003,888207
22.37628,1480541
22.38253,1746662
22.38880,1533904
22.39505,1042840
22.40130,579107
22.40757,354248
22.41382,258808
22.42007,226915
22.42632,215902
22.43258,209058
22.43883,227928
22.44508,254421
22.45135,282496
22.45760,334043
22.46385,403678
22.47012,506141
22.47637,537491
22.48262,486465
22.48888,391709
22.49513,316228
22.50138,259218
22.50765,238350
22.51390,227313
22.52015,216309
22.52642,202053
22.53267,197518
22.53892,205879
22.54518,239001
22.55143,315829
22.55768,413981
22.56395,501908
22.57020,523824
22.57645,467386
22.58272,387662
22.58897,314882
22.59522,268233
22.60148,233149
22.60773,213872
22.61398,203476
22.62025,200372
22.62650,198179
22.63275,203508
22.63902,207256
22.64527,209035
22.65152,226294
22.65777,231828
22.66403,225839
22.67028,222149
22.67653,222687
22.68280,222544
22.68905,235224
22.69530,235386
22.70157,237463
22.70782,220288
22.71407,208011
22.72033,198965
22.72658,186846
22.73283,185645
22.73910,186356
22.74535,184661
22.75160,191310
22.75787,198875
22.76412,198288
22.77037,210328
22.77663,218954
22.78288,240241
22.78913,320426
22.79540,675819
22.80165,1928515
22.80790,5038777
22.81417,9817063
22.82042,1.491563E+07
22.82667,1.749372E+07
22.83293,1.418924E+07
22.83918,7775506
22.84543,3288235
22.85170,1498963
22.85795,839385
22.86420,576102
22.87045,445177
22.87672,380575
22.88297,333759
22.88922,305588
22.89548,282950
22.90173,263117
22.90798,244560
22.91425,243921
22.92050,234215
22.92675,234400
22.93302,224629
22.93927,227985
22.94552,229485
22.95178,228155
22.95803,226944
22.96428,225509
22.97055,216929
22.97680,217593
22.98305,233366
22.98932,255762
22.99557,268228
23.00182,274781
23.00808,259731
23.01433,238306
23.02058,214663
23.02685,196513
23.03310,194068
23.03935,189440
23.04562,192321
23.05187,192267
23.05812,194355
23.06438,202001
23.07063,222819
23.07688,273554
23.08315,370541
23.08940,473746
23.09565,513742
23.10190,475834
23.10817,383282
23.11442,297116
23.12067,244667
23.12693,218254
23.13318,199784
23.13943,195171
23.14570,189471
23.15195,180380
23.15820,179764
23.16447,169005
23.17072,163299
23.17697,166631
23.18323,167002
23.18948,165300
23.19573,167881
23.20200,173410
23.20825,170882
23.21450,176763
23.22077,172495
23.22702,172608
23.23327,166744
23.23953,159644
23.24578,157087
23.25203,159123
23.25830,163339
23.26455,168093
23.27080,170728
23.27707,164533
23.28332,164784
23.28957,158488
23.29583,158127
23.30208,165123
23.30833,183374
23.31458,234798
23.32085,310614
23.32710,374365
23.33335,394525
23.33962,354999
23.34587,290905
23.35212,237314
23.35838,212979
23.36463,189633
23.37088,177294
23.37715,171750
23.38340,169982
23.38965,165552
23.39592,172544
23.40217,171560
23.40842,172509
23.41468,166794
23.42093,166935
23.42718,167858
23.43345,164733
23.43970,161510
23.44595,166125
23.45222,169033
23.45847,177951
23.46472,186745
23.47098,194215
23.47723,203357
23.48348,212567
23.48975,231806
23.49600,244804
23.50225,259029
23.50852,261701
23.51477,308245
23.52102,374185
23.52728,466563
23.53353,530979
23.53978,526471
23.54603,435820
23.55230,352105
23.55855,291794
23.56480,259722
23.57107,251813
23.57732,264682
23.58357,304601
23.58983,350859
23.59608,392041
23.60233,380378
23.60860,344844
23.61485,302623
23.62110,262332
23.62737,237868
23.63362,228780
23.63987,219643
23.64613,221329
23.65238,224574
23.65863,224912
23.66490,217487
23.67115,202612
23.67740,194405
23.68367,191109
23.68992,190581
23.69617,201511
23.70243,210067
23.70868,215183
23.71493,219494
23.72120,221162
23.72745,252952
23.73370,312037
23.73997,399759
23.74622,456087
23.75247,445579
23.75872,370965
23.76498,303228
23.77123,257153
23.77748,230675
23.78375,218319
23.79000,214546
23.79625,216447
23.80252,217521
23.80877,215128
23.81502,225810
23.82128,241822
23.82753,253486
23.83378,264446
23.84005,265451
23.84630,247874
23.85255,232719
23.85882,228882
23.86507,219763
23.87132,220271
23.87758,218202
23.88383,231501
23.89008,254769
23.89635,296333
23.90260,345518
23.90885,367435
23.91512,360088
23.92137,321454
23.92762,289544
23.93388,260863
23.94013,249899
23.94638,250947
23.95265,255817
23.95890,292317
23.96515,440160
23.97140,883149
23.97767,1998174
23.98392,3864626
23.99017,6639287
23.99643,1.162382E+07
24.00268,1.810932E+07
24.00893,2.43575E+07
24.01520,2.819885E+07
24.02145,2.632537E+07
24.02770,1.922467E+07
24.03397,1.014117E+07
24.04022,4931221
24.04647,2754049
24.05273,1803678
24.05898,1323085
24.06523,1003589
24.07150,814366
24.07775,716795
24.08400,690385
24.09027,681255
24.09652,666209
24.10277,656105
24.10903,807422
24.11528,1353915
24.12153,2556038
24.12780,4486154
24.13405,6091443
24.14030,5979387
24.14657,4532094
24.15282,2730703
24.15907,1618058
24.16533,1047958
24.17158,759475
24.17783,612088
24.18410,531744
24.19035,502600
24.19660,508943
24.20285,600952
24.20912,856286
24.21537,1766373
24.22162,4379642
24.22788,9319821
24.23413,1.66888E+07
24.24038,2.532166E+07
24.24665,3.272398E+07
24.25290,3.77679E+07
24.25915,4.008856E+07
24.26542,4.113688E+07
24.27167,4.139385E+07
24.27792,4.095609E+07
24.28418,4.052474E+07
24.29043,3.473408E+07
24.29668,1.25597E+07
24.30295,4626261
24.30920,2676716
24.31545,1899895
24.32172,1481338
24.32797,1213605
24.33422,1050215
24.34048,931129
24.34673,843701
24.35298,779317
24.35925,746137
24.36550,713182
24.37175,715018
24.37802,724256
24.38427,730641
24.39052,753320
24.39678,737616
24.40303,688619
24.40928,629673
24.41553,577921
24.42180,540800
24.42805,524533
24.43430,541300
24.44057,623860
24.44682,788728
24.45307,997649
24.45933,1126822
24.46558,1079055
24.47183,943491
24.47810,753392
24.48435,615127
24.49060,525885
24.49687,467593
24.50312,421058
24.50937,387240
24.51563,367764
24.52188,355049
24.52813,341473
24.53440,330508
24.54065,323324
24.54690,319147
24.55317,316653
24.55942,313185
24.56567,298023
24.57193,291562
24.57818,282564
24.58443,276868
24.59070,277355
24.59695,273652
24.60320,266653
24.60947,258793
24.61572,254207
24.62197,244382
24.62822,241299
24.63448,236300
24.64073,247518
24.64698,254922
24.65325,263303
24.65950,256364
24.66575,243792
24.67202,239249
24.67827,250091
24.68452,298862
24.69078,382417
24.69703,500035
24.70328,585980
24.70955,569555
24.71580,489305
24.72205,394033
24.72832,326787
24.73457,285294
24.74082,257645
24.74708,243162
24.75333,231026
24.75958,226687
24.76585,218807
24.77210,213807
24.77835,215437
24.78462,227801
24.79087,248745
24.79712,270820
24.80338,278605
24.80963,269343
24.81588,252055
24.82215,225638
24.82840,208249
24.83465,194202
24.84092,193321
24.84717,190977
24.85342,181326
24.85967,178558
24.86593,178140
24.87218,179919
24.87843,187100
24.88470,202839
24.89095,221058
24.89720,248774
24.90347,277532
24.90972,280101
24.91597,276155
24.92223,250531
24.92848,230759
24.93473,225667
24.94100,222321
24.94725,224418
24.95350,234321
24.95977,285725
24.96602,331906
24.97227,371641
24.97853,359874
24.98478,308082
24.99103,274506
24.99730,248236
25.00355,236746
25.00980,225546
25.01607,223593
25.02232,217625
25.02857,219376
25.03483,226362
25.04108,230278
25.04733,243467
25.05360,246862
25.05985,240096
25.06610,224582
25.07235,213254
25.07862,214778
25.08487,213462
25.09112,210576
25.09738,205690
25.10363,207275
25.10988,206921
25.11615,209988
25.12240,211261
25.12865,223747
25.13492,245503
25.14117,283849
25.14742,308374
25.15368,303973
25.15993,269192
25.16618,226287
25.17245,201657
25.17870,189031
25.18495,187725
25.19122,198372
25.19747,209693
25.20372,215366
25.20998,209914
25.21623,200592
25.22248,186195
25.22875,176859
25.23500,169709
25.24125,166087
25.24752,165962
25.25377,162426
25.26002,161231
25.26628,162708
25.27253,159682
25.27878,159293
25.28505,170087
25.29130,182699
25.29755,218234
25.30380,260233
25.31007,298575
25.31632,300738
25.32257,284097
25.32883,255872
25.33508,227010
25.34133,201751
25.34760,196821
25.35385,186170
25.36010,177015
25.36637,174864
25.37262,174729
25.37887,171797
25.38513,173372
25.39138,173906
25.39763,179683
25.40390,205040
25.41015,254950
25.41640,316386
25.42267,370072
25.42892,388394
25.43517,355279
25.44143,307166
25.44768,273696
25.45393,252150
25.46020,239290
25.46645,223610
25.47270,217933
25.47897,209457
25.48522,204259
25.49147,201616
25.49773,216452
25.50398,241194
25.51023,277050
25.51648,299268
25.52275,311219
25.52900,305546
25.53525,290649
25.54152,297761
25.54777,343815
25.55402,395155
25.56028,439184
25.56653,423904
25.57278,369211
25.57905,311808
25.58530,266496
25.59155,248332
25.59782,225360
25.60407,215164
25.61032,205882
25.61658,205999
25.62283,195741
25.62908,188503
25.63535,182720
25.64160,178975
25.64785,173248
25.65412,169108
25.66037,167959
25.66662,163692
25.67288,159285
25.67913,162378
25.68538,162733
25.69165,162182
25.69790,162553
25.70415,159354
25.71042,158644
25.71667,154343
25.72292,157259
25.72918,153675
25.73543,152571
25.74168,153865
25.74793,147744
25.75420,149481
25.76045,152218
25.76670,148221
25.77297,145783
25.77922,150630
25.78547,147568
25.79173,145409
25.79798,148304
25.80423,144231
25.81050,145958
25.81675,142325
25.82300,142129
25.82927,141135
25.83552,138803
25.84177,143815
25.84803,140398
25.85428,140678
25.86053,138735
25.86680,144205
25.87305,151203
25.87930,147168
25.88557,147157
25.89182,145020
25.89807,142074
25.90433,141345
25.91058,142692
25.91683,139114
25.92310,138530
25.92935,140668
25.93560,137932
25.94187,138697
25.94812,138667
25.95437,141730
25.96062,137486
25.96688,140749
25.97313,139339
25.97938,141330
25.98565,144008
25.99190,154133
25.99815,158258
26.00442,157307
26.01067,149284
26.01692,148182
26.02318,143661
26.02943,144015
26.03568,143482
26.04195,146172
26.04820,146424
26.05445,156609
26.06072,163013
26.06697,164551
26.07322,160442
26.07948,160599
26.08573,152532
26.09198,149016
26.09825,147655
26.10450,142771
26.11075,139183
26.11702,138848
26.12327,143136
26.12952,143714
26.13578,143382
26.14203,139504
26.14828,140849
26.15455,138237
26.16080,135468
26.16705,137847
26.17332,135761
26.17957,139172
26.18582,141520
26.19207,143577
26.19833,143148
26.20458,139387
26.21083,142848
26.21710,136862
26.22335,135801
26.22960,139259
26.23587,140333
26.24212,140704
26.24837,141200
26.25463,141870
26.26088,136615
26.26713,138936
26.27340,139896
26.27965,139999
26.28590,137311
26.29217,138516
26.29842,142477
26.30467,138647
26.31093,137751
26.31718,144579
26.32343,142568
26.32970,143894
26.33595,145219
26.34220,144506
26.34847,142754
26.35472,142562
26.36097,145276
26.36723,150597
26.37348,166918
26.37973,193119
26.38600,256161
26.39225,317154
26.39850,342590
26.40475,309378
26.41102,257649
26.41727,204724
26.42352,181273
26.42978,167125
26.43603,161692
26.44228,156234
26.44855,154004
26.45480,154507
26.46105,155579
26.46732,156246
26.47357,153824
26.47982,156783
26.48608,153178
26.49233,155820
26.49858,160425
26.50485,158000
26.51110,162398
26.51735,160872
26.52362,157508
26.52987,159778
26.53612,166967
26.54238,180553
26.54863,181961
26.55488,184742
26.56115,181078
26.56740,169238
26.57365,162668
26.57992,162328
26.58617,155086
26.59242,154767
26.59868,157340
26.60493,157550
26.61118,157171
26.61743,164856
26.62370,175808
26.62995,174768
26.63620,178715
26.64247,172293
26.64872,167384
26.65497,173673
26.66123,193495
26.66748,238896
26.67373,296401
26.68000,373043
26.68625,428985
26.69250,424128
26.69877,385715
26.70502,334901
26.71127,314522
26.71753,310776
26.72378,309125
26.73003,290986
26.73630,265064
26.74255,246343
26.74880,232504
26.75507,221779
26.76132,232885
26.76757,256214
26.77383,307696
26.78008,364807
26.78633,399813
26.79260,399445
26.79885,366467
26.80510,343428
26.81137,322529
26.81762,303281
26.82387,290088
26.83013,288032
26.83638,317938
26.84263,407520
26.84888,503202
26.85515,579921
26.86140,575913
26.86765,496935
26.87392,417188
26.88017,342367
26.88642,311324
26.89268,302622
26.89893,332283
26.90518,380574
26.91145,473663
26.91770,765888
26.92395,1669649
26.93022,3789395
26.93647,7520959
26.94272,1.239797E+07
26.94898,1.810901E+07
26.95523,2.262719E+07
26.96148,2.221883E+07
26.96775,1.439465E+07
26.97400,7259024
26.98025,3994381
26.98652,2540504
26.99277,1744719
26.99902,1256785
27.00528,951166
27.01153,780322
27.01778,698634
27.02405,758213
27.03030,943430
27.03655,1252357
27.04282,1388388
27.04907,1340432
27.05532,1091290
27.06157,857729
27.06783,690684
27.07408,595722
27.08033,525622
27.08660,477413
27.09285,435663
27.09910,397821
27.10537,365303
27.11162,344929
27.11787,321846
27.12413,307048
27.13038,305842
27.13663,327472
27.14290,372963
27.14915,419022
27.15540,456617
27.16167,447326
27.16792,412910
27.17417,369655
27.18043,329106
27.18668,315814
27.19293,307954
27.19920,298575
27.20545,287497
27.21170,282373
27.21797,273186
27.22422,269337
27.23047,264755
27.23673,266899
27.24298,262379
27.24923,252184
27.25550,259069
27.26175,261805
27.26800,271075
27.27425,268848
27.28052,271657
27.28677,258459
27.29302,250691
27.29928,243809
27.30553,249487
27.31178,245167
27.31805,239446
27.32430,235333
27.33055,238074
27.33682,231731
27.34307,233503
27.34932,238957
27.35558,237584
27.36183,237760
27.36808,239057
27.37435,242959
27.38060,245902
27.38685,237540
27.39312,242937
27.39937,243169
27.40562,240097
27.41188,247230
27.41813,270666
27.42438,275119
27.43065,284620
27.43690,276965
27.44315,264148
27.44942,259338
27.45567,248063
27.46192,246786
27.46818,231271
27.47443,226887
27.48068,221083
27.48695,223591
27.49320,226878
27.49945,226062
27.50570,224703
27.51197,217725
27.51822,216262
27.52447,211346
27.53073,211690
27.53698,207029
27.54323,211582
27.54950,217759
27.55575,221274
27.56200,213235
27.56827,216681
27.57452,213497
27.58077,207948
27.58703,206469
27.59328,216107
27.59953,206144
27.60580,213992
27.61205,207487
27.61830,207374
27.62457,214748
27.63082,208254
27.63707,207594
27.64333,208829
27.64958,214855
27.65583,210674
27.66210,214419
27.66835,211469
27.67460,212825
27.68087,222189
27.68712,221677
27.69337,225259
27.69963,222300
27.70588,224459
27.71213,218980
27.71838,218997
27.72465,218182
27.73090,224609
27.73715,233062
27.74342,237473
27.74967,237936
27.75592,235770
27.76218,232263
27.76843,230163
27.77468,234140
27.78095,231637
27.78720,226618
27.79345,231033
27.79972,226236
27.80597,224179
27.81222,221398
27.81848,220862
27.82473,221235
27.83098,213698
27.83725,221635
27.84350,225594
27.84975,233434
27.85602,245929
27.86227,287044
27.86852,364324
27.87478,460070
27.88103,486994
27.88728,468561
27.89355,417345
27.89980,365842
27.90605,325631
27.91232,301126
27.91857,283828
27.92482,274134
27.93107,274147
27.93733,261093
27.94358,259977
27.94983,265608
27.95610,256438
27.96235,254637
27.96860,247735
27.97487,250891
27.98112,248584
27.98737,248958
27.99363,252170
27.99988,253225
28.00613,262436
28.01240,255345
28.01865,253063
28.02490,251871
28.03117,253576
28.03742,244913
28.04367,249185
28.04993,249776
28.05618,243224
28.06243,240283
28.06870,243724
28.07495,241535
28.08120,235763
28.08747,243958
28.09372,233647
28.09997,239322
28.10623,240356
28.11248,235705
28.11873,241294
28.12500,241127
28.13125,237005
28.13750,250565
28.14377,238214
28.15002,236666
28.15627,239699
28.16252,236248
28.16878,243815
28.17503,237365
28.18128,230442
28.18755,232044
28.19380,240157
28.20005,233520
28.20632,238641
28.21257,238814
28.21882,242577
28.22508,235334
28.23133,231674
28.23758,235931
28.24385,232897
28.25010,237788
28.25635,237065
28.26262,237091
28.26887,236880
28.27512,240144
28.28138,235105
28.28763,232055
28.29388,241957
28.30015,236626
28.30640,240555
28.31265,237879
28.31892,238685
28.32517,244864
28.33142,238833
28.33768,239738
28.34393,247623
28.35018,247467
28.35645,256574
28.36270,258065
28.36895,262851
28.37520,267475
28.38147,273210
28.38772,278647
28.39397,281682
28.40023,287132
28.40648,299009
28.41273,303289
28.41900,306853
28.42525,325536
28.43150,334807
28.43777,328853
28.44402,345141
28.45027,338817
28.45653,340126
28.46278,329618
28.46903,339639
28.47530,339653
28.48155,338775
28.48780,336197
28.49407,339382
28.50032,339845
28.50657,330565
28.51283,330945
28.51908,323595
28.52533,310472
28.53160,306234
28.53785,304813
28.54410,297832
28.55037,291857
28.55662,277692
28.56287,283090
28.56913,270806
28.57538,265696
28.58163,268343
28.58790,260507
28.59415,257997
28.60040,256537
28.60665,257611
28.61292,256795
28.61917,251401
28.62542,253968
28.63168,249389
28.63793,251326
28.64418,244139
28.65045,250527
28.65670,246596
28.66295,246655
28.66922,246403
28.67547,243358
28.68172,251922
28.68798,241604
28.69423,252579
28.70048,247906
28.70675,249849
28.71300,240879
28.71925,247973
28.72552,241587
28.73177,247139
28.73802,242163
28.74428,248233
28.75053,250941
28.75678,247966
28.76305,248331
28.76930,244921
28.77555,243007
28.78182,248449
28.78807,238448
28.79432,237463
28.80058,237832
28.80683,239851
28.81308,234501
28.81935,235715
28.82560,232918
28.83185,237716
28.83810,241178
28.84437,231782
28.85062,242020
28.85687,239946
28.86313,237120
28.86938,237893
28.87563,239034
28.88190,237216
28.88815,236924
28.89440,227276
28.90067,238879
28.90692,239224
28.91317,231026
28.91943,229139
28.92568,237770
28.93193,235461
28.93820,230546
28.94445,227272
28.95070,233798
28.95697,233036
28.96322,235144
28.96947,229488
28.97573,231266
28.98198,230568
28.98823,228700
28.99450,231803
29.00075,239287
29.00700,234515
29.01327,232777
29.01952,232068
29.02577,233264
29.03203,232406
29.03828,236035
29.04453,229269
29.05078,227825
29.05705,232688
29.06330,229120
29.06955,234198
29.07582,226578
29.08207,227738
29.08832,223563
29.09458,234078
29.10083,231695
29.10708,223938
29.11335,229998
29.11960,226167
29.12585,228646
29.13212,226255
29.13837,227397
29.14462,224560
29.15088,230668
29.15713,224687
29.16338,224922
29.16965,225797
29.17590,224500
29.18215,222831
29.18842,232564
29.19467,228353
29.20092,224147
29.20718,235787
29.21343,227490
29.21968,229415
29.22595,233457
29.23220,248820
29.23845,281337
29.24472,307098
29.25097,358691
29.25722,395875
29.26347,394121
29.26973,396623
29.27598,362537
29.28223,333934
29.28850,303433
29.29475,277257
29.30100,274957
29.30727,264063
29.31352,261965
29.31977,257800
29.32603,249885
29.33228,255628
29.33853,250084
29.34480,248721
29.35105,247628
29.35730,249298
29.36357,242354
29.36982,249351
29.37607,237930
29.38233,245758
29.38858,241406
29.39483,238930
29.40110,233741
29.40735,244500
29.41360,238837
29.41987,237929
29.42612,241243
29.43237,232600
29.43863,239484
29.44488,234149
29.45113,232268
29.45740,231345
29.46365,231306
29.46990,238481
29.47617,234388
29.48242,231551
29.48867,231400
29.49492,233833
29.50118,234753
29.50743,237347
29.51368,227102
29.51995,225310
29.52620,234480
29.53245,230960
29.53872,224748
29.54497,225691
29.55122,232722
29.55748,224550
29.56373,227952
29.56998,230226
29.57625,222477
29.58250,223870
29.58875,229587
29.59502,225939
29.60127,224791
29.60752,231687
29.61378,230771
29.62003,220847
29.62628,227944
29.63255,221082
29.63880,222342
29.64505,226833
29.65132,225171
29.65757,221505
29.66382,229596
29.67008,226077
29.67633,219176
29.68258,219180
29.68885,221600
29.69510,217434
29.70135,220612
29.70760,221195
29.71387,217820
29.72012,228185
29.72637,229344
29.73263,219150
29.73888,218235
29.74513,220757
29.75140,219742
29.75765,224333
29.76390,217563
29.77017,223361
29.77642,216493
29.78267,217125
29.78893,223848
29.79518,216901
29.80143,221356
29.80770,220064
29.81395,217901
29.82020,219045
29.82647,222048
29.83272,219289
29.83897,218245
29.84523,216417
29.85148,218092
29.85773,218362
29.86400,212379
29.87025,222015
29.87650,213904
29.88277,215995
29.88902,218469
29.89527,212962
29.90153,214824
29.90778,220920
29.91403,221852
29.92028,215977
29.92655,216624
29.93280,217073
29.93905,224293
29.94532,221660
29.95157,214095
29.95782,219141
29.96408,214841
29.97033,213396
29.97658,217605
29.98285,218662
29.98910,219419
29.99535,213751
30.00162,212885
30.00787,213715
30.01412,210941
30.02038,210792
30.02663,212000
30.03288,208079
30.03915,211189
30.04540,213437
30.05165,211238
30.05792,214150
30.06417,214903
30.07042,215882
30.07668,213537
30.08293,216323
30.08918,218170
30.09545,217492
30.10170,215969
30.10795,220296
30.11422,210291
30.12047,213709
30.12672,210016
30.13298,211174
30.13923,218024
30.14548,210577
30.15173,211664
30.15800,216072
30.16425,219491
30.17050,207978
30.17677,208526
30.18302,209825
30.18927,207879
30.19553,216825
30.20178,212511
30.20803,207860
30.21430,217675
30.22055,218542
30.22680,206279
30.23307,206735
30.23932,209317
30.24557,211268
30.25183,208736
30.25808,215445
30.26433,215262
30.27060,207510
30.27685,213132
30.28310,207379
30.28937,206750
30.29562,205180
30.30187,210321
30.30813,211358
30.31438,204301
30.32063,204655
30.32690,207599
30.33315,210907
30.33940,207210
30.34567,213712
30.35192,213240
30.35817,212286
30.36442,212953
30.37068,206306
30.37693,204649
30.38318,211008
30.38945,207637
30.39570,207069
30.40195,205245
30.40822,203344
30.41447,213436
30.42072,214142
30.42698,206816
30.43323,206876
30.43948,205264
30.44575,205764
30.45200,204885
30.45825,206522
30.46452,204582
30.47077,205777
30.47702,205373
30.48328,205861
30.48953,211096
30.49578,207042
30.50205,205722
30.50830,202511
30.51455,206050
30.52082,202379
30.52707,211606
30.53332,203247
30.53958,205706
30.54583,206195
30.55208,204189
30.55835,209524
30.56460,208393
30.57085,209421
30.57710,201813
30.58337,204460
30.58962,198105
30.59587,203702
30.60213,204475
30.60838,201125
30.61463,199242
30.62090,207716
30.62715,201046
30.63340,199594
30.63967,200920
30.64592,200145
30.65217,205793
30.65843,205848
30.66468,202616
30.67093,201835
30.67720,205473
30.68345,202833
30.68970,203089
30.69597,210953
30.70222,209700
30.70847,215305
30.71473,217351
30.72098,220574
30.72723,225208
30.73350,226484
30.73975,222748
30.74600,219369
30.75227,208663
30.75852,217031
30.76477,213157
30.77103,207269
30.77728,203645
30.78353,209332
30.78980,207033
30.79605,201927
30.80230,203281
30.80855,207815
30.81482,204850
30.82107,201429
30.82732,199951
30.83358,201800
30.83983,204142
30.84608,202770
30.85235,204316
30.85860,204201
30.86485,203343
30.87112,201355
30.87737,201799
30.88362,204579
30.88988,201411
30.89613,207102
30.90238,206709
30.90865,199415
30.91490,200107
30.92115,204462
30.92742,203524
30.93367,204702
30.93992,196543
30.94618,204617
30.95243,206531
30.95868,198532
30.96495,202616
30.97120,202145
30.97745,202440
30.98372,200850
30.98997,205421
30.99622,214604
31.00248,215535
31.00873,223939
31.01498,245077
31.02125,259833
31.02750,269193
31.03375,271258
31.04000,271969
31.04627,271582
31.05252,257550
31.05877,260702
31.06503,241775
31.07128,228331
31.07753,226194
31.08380,218653
31.09005,212884
31.09630,207716
31.10257,210530
31.10882,208907
31.11507,204893
31.12133,205991
31.12758,204823
31.13383,203332
31.14010,200993
31.14635,209651
31.15260,206964
31.15887,198988
31.16512,204496
31.17137,208374
31.17763,207784
31.18388,200043
31.19013,200999
31.19640,203817
31.20265,203300
31.20890,201570
31.21517,209903
31.22142,199591
31.22767,201506
31.23393,200513
31.24018,204882
31.24643,197699
31.25268,197423
31.25895,203275
31.26520,195106
31.27145,199683
31.27772,203788
31.28397,200407
31.29022,195375
31.29648,191991
31.30273,201708
31.30898,196159
31.31525,194463
31.32150,194146
31.32775,199314
31.33402,200613
31.34027,194495
31.34652,198210
31.35278,200928
31.35903,195605
31.36528,197402
31.37155,196094
31.37780,202065
31.38405,199728
31.39032,203221
31.39657,204677
31.40282,199960
31.40908,197384
31.41533,197819
31.42158,199232
31.42785,199636
31.43410,198640
31.44035,200333
31.44662,202193
31.45287,201444
31.45912,205928
31.46538,200266
31.47163,200079
31.47788,207737
31.48413,206776
31.49040,206938
31.49665,204528
31.50290,208188
31.50917,203468
31.51542,203617
31.52167,201738
31.52793,203955
31.53418,200002
31.54043,199228
31.54670,198859
31.55295,200760
31.55920,201002
31.56547,201363
31.57172,194611
31.57797,205157
31.58423,199302
31.59048,193972
31.59673,200608
31.60300,201705
31.60925,193790
31.61550,192342
31.62177,191668
31.62802,193876
31.63427,194054
31.64053,201688
31.64678,188720
31.65303,198598
31.65930,189950
31.66555,192312
31.67180,190807
31.67807,193596
31.68432,192946
31.69057,192909
31.69682,188250
31.70308,191592
31.70933,196047
31.71558,195619
31.72185,192599
31.72810,196503
31.73435,191606
31.74062,188756
31.74687,192235
31.75312,195848
31.75938,195266
31.76563,197661
31.77188,191515
31.77815,189959
31.78440,190835
31.79065,188605
31.79692,189268
31.80317,188954
31.80942,194332
31.81568,193906
31.82193,193908
31.82818,195655
31.83445,191404
31.84070,190828
31.84695,185286
31.85322,195990
31.85947,191630
31.86572,191718
31.87198,188106
31.87823,191912
31.88448,187836
31.89075,192916
31.89700,190929
31.90325,184106
31.90950,189799
31.91577,191656
31.92202,188963
31.92827,188610
31.93453,186636
31.94078,187817
31.94703,192432
31.95330,188907
31.95955,187997
31.96580,189483
31.97207,188765
31.97832,187778
31.98457,191714
31.99083,188039
31.99708,190785
32.00333,187915
32.00960,185325
32.01585,186577
32.02210,185388
32.02837,183400
32.03462,188750
32.04087,187390
32.04713,189678
32.05338,184879
32.05963,190484
32.06590,186666
32.07215,190765
32.07840,184562
32.08467,187146
32.09092,185566
32.09717,185522
32.10343,192845
32.10968,184904
32.11593,187771
32.12220,189386
32.12845,183078
32.13470,182280
32.14095,183157
32.14722,185531
32.15347,187442
32.15972,185622
32.16598,189294
32.17223,186390
32.17848,189277
32.18475,187463
32.19100,192074
32.19725,183932
32.20352,189166
32.20977,188680
32.21602,187237
32.22228,180725
32.22853,181003
32.23478,188450
32.24105,185886
32.24730,180407
32.25355,185337
32.25982,179893
32.26607,186647
32.27232,186612
32.27858,183625
32.28483,184414
32.29108,185706
32.29735,188987
32.30360,186588
32.30985,192402
32.31612,188408
32.32237,180072
32.32862,182648
32.33488,187738
32.34113,182030
32.34738,188931
32.35363,183377
32.35990,187303
32.36615,183134
32.37240,180843
32.37867,182712
32.38492,180302
32.39117,184713
32.39743,184035
32.40368,178890
32.40993,183127
32.41620,179780
32.42245,185265
32.42870,180386
32.43497,187612
32.44122,180209
32.44747,181621
32.45373,180208
32.45998,185120
32.46623,182678
32.47250,179970
32.47875,185329
32.48500,179200
32.49127,178275
32.49752,178862
32.50377,185826
32.51003,180354
32.51628,178588
32.52253,179323
32.52880,179028
32.53505,181835
32.54130,181399
32.54757,184278
32.55382,183529
32.56007,179111
32.56632,179092
32.57258,179424
32.57883,181317
32.58508,183445
32.59135,178082
32.59760,184571
32.60385,180709
32.61012,179802
32.61637,175422
32.62262,177234
32.62888,177792
32.63513,180312
32.64138,177595
32.64765,179934
32.65390,185402
32.66015,183715
32.66642,184904
32.67267,179869
32.67892,179039
32.68518,175748
32.69143,174970
32.69768,179946
32.70395,182908
32.71020,182730
32.71645,185319
32.72272,184274
32.72897,180028
32.73522,177844
32.74148,180381
32.74773,177139
32.75398,176107
32.76025,181944
32.76650,178731
32.77275,176656
32.77902,184251
32.78527,177708
32.79152,173843
32.79777,177731
32.80403,176686
32.81028,176904
32.81653,181939
32.82280,174025
32.82905,181366
32.83530,176539
32.84157,181498
32.84782,175602
32.85407,177864
32.86033,173946
32.86658,177833
32.87283,176188
32.87910,178918
32.88535,177291
32.89160,176887
32.89787,179162
32.90412,174124
32.91037,176609
32.91663,177340
32.92288,180945
32.92913,175873
32.93540,175656
32.94165,175259
32.94790,180419
32.95417,182475
32.96042,178587
32.96667,175280
32.97293,178973
32.97918,184152
32.98543,175826
32.99170,176320
32.99795,177596
33.00420,176939
33.01045,178788
33.01672,176482
33.02297,173178
33.02922,172704
33.03548,174533
33.04173,176182
33.04798,173768
33.05425,180000
33.06050,170987
33.06675,172429
33.07302,175191
33.07927,172707
33.08552,172114
33.09178,179765
33.09803,172418
33.10428,181750
33.11055,179662
33.11680,169842
33.12305,174543
33.12932,172650
33.13557,175573
33.14182,174700
33.14808,178217
33.15433,179210
33.16058,176412
33.16685,182040
33.17310,179652
33.17935,183604
33.18562,182004
33.19187,185390
33.19812,186111
33.20438,190823
33.21063,187024
33.21688,186984
33.22315,189289
33.22940,184791
33.23565,184057
33.24190,183946
33.24817,178680
33.25442,178480
33.26067,181359
33.26693,176277
33.27318,175456
33.27943,179399
33.28570,174900
33.29195,180328
33.29820,175759
33.30447,174816
33.31072,173969
33.31697,170364
33.32323,174866
33.32948,173015
33.33573,171131
33.34200,173997
33.34825,180506
33.35450,174866
33.36077,176440
33.36702,179866
33.37327,180562
33.37953,186153
33.38578,180776
33.39203,188843
33.39830,189331
33.40455,194924
33.41080,192051
33.41707,190795
33.42332,190828
33.42957,197077
33.43583,185655
33.44208,191829
33.44833,185787
33.45458,183261
33.46085,178793
33.46710,183755
33.47335,179442
33.47962,176301
33.48587,173170
33.49212,170066
33.49838,174020
33.50463,173242
33.51088,172979
33.51715,170487
33.52340,174505
33.52965,178100
33.53592,170176
33.54217,176410
33.54842,172195
33.55468,177244
33.56093,168990
33.56718,171846
33.57345,175727
33.57970,174021
33.58595,169663
33.59222,172126
33.59847,170555
33.60472,171981
33.61098,167803
33.61723,176195
33.62348,172050
33.62975,172358
33.63600,174800
33.64225,170867
33.64852,171270
33.65477,167623
33.66102,165560
33.66728,169707
33.67353,170472
33.67978,174663
33.68603,172501
33.69230,169792
33.69855,165952
33.70480,169514
33.71107,171000
33.71732,173740
33.72357,167481
33.72983,166750
33.73608,169888
33.74233,171268
33.74860,166991
33.75485,170646
33.76110,173790
33.76737,167353
33.77362,170270
33.77987,167542
33.78613,170272
33.79238,169611
33.79863,170564
33.80490,168065
33.81115,173598
33.81740,173111
33.82367,170561
33.82992,164505
33.83617,167600
33.84243,170197
33.84868,167552
33.85493,172467
33.86120,172053
33.86745,172607
33.87370,168539
33.87997,167122
33.88622,166587
33.89247,163296
33.89872,163889
33.90498,170937
33.91123,169777
33.91748,170789
33.92375,168672
33.93000,167120
33.93625,164996
33.94252,166967
33.94877,169042
33.95502,166551
33.96128,163403
33.96753,164781
33.97378,163094
33.98005,169185
33.98630,166487
33.99255,170859
33.99882,162738
34.00507,166082
34.01132,167382
34.01758,167995
34.02383,169826
34.03008,166382
34.03635,170160
34.04260,166100
34.04885,163952
34.05512,167363
34.06137,166721
34.06762,161914
34.07388,170680
34.08013,165134
34.08638,164710
34.09265,162922
34.09890,165684
34.10515,165851
34.11142,162812
34.11767,171287
34.12392,165200
34.13017,162409
34.13643,164776
34.14268,166868
34.14893,163644
34.15520,164237
34.16145,165554
34.16770,163766
34.17397,168042
34.18022,160543
34.18647,165928
34.19273,163692
34.19898,167159
34.20523,160348
34.21150,166953
34.21775,169516
34.22400,165072
34.23027,163793
34.23652,161725
34.24277,168300
34.24903,164744
34.25528,163367
34.26153,170886
34.26780,166235
34.27405,159070
34.28030,164389
34.28657,165852
34.29282,160725
34.29907,166324
34.30533,159288
34.31158,165713
34.31783,165026
34.32410,166428
34.33035,164708
34.33660,166567
34.34285,163289
34.34912,162521
34.35537,158802
34.36162,159936
34.36788,164477
34.37413,162894
34.38038,161237
34.38665,167265
34.39290,159870
34.39915,162348
34.40542,165107
34.41167,165559
34.41792,160890
34.42418,168816
34.43043,164380
34.43668,161450
34.44295,161111
34.44920,159610
34.45545,166013
34.46172,159739
34.46797,160289
34.47422,159818
34.48048,169488
34.48673,161480
34.49298,160487
34.49925,160972
34.50550,162260
34.51175,161036
34.51802,161670
34.52427,165674
34.53052,160971
34.53678,167500
34.54303,158714
34.54928,163125
34.55553,161678
34.56180,164148
34.56805,163514
34.57430,163832
34.58057,166504
34.58682,163139
34.59307,158582
34.59933,161148
34.60558,161874
34.61183,165149
34.61810,159338
34.62435,160921
34.63060,157674
34.63687,163540
34.64312,164217
34.64937,160533
34.65563,162049
34.66188,160238
34.66813,162348
34.67440,163825
34.68065,164567
34.68690,164151
34.69317,158318
34.69942,157730
34.70567,158596
34.71193,163667
34.71818,160732
34.72443,159974
34.73070,157536
34.73695,159928
34.74320,159154
34.74947,162305
34.75572,158504
34.76197,161185
34.76823,157237
34.77448,157366
34.78073,156415
34.78698,156254
34.79325,157055
34.79950,160263
34.80575,160680
34.81202,159495
34.81827,160321
34.82452,156208
34.83078,156976
34.83703,159321
34.84328,158411
34.84955,160799
34.85580,160438
34.86205,160843
34.86832,161557
34.87457,160445
34.88082,158637
34.88708,157503
34.89333,159627
34.89958,160548
34.90585,159404
34.91210,158525
34.91835,153847
34.92462,161135
34.93087,159081
34.93712,160343
34.94338,161364
34.94963,155223
34.95588,154833
34.96215,156583
34.96840,154515
34.97465,156238
34.98092,158354
34.98717,155758
34.99342,156267
34.99967,155692
35.00593,155849
35.01218,159168
35.01843,152360
35.02470,160176
35.03095,161270
35.03720,160178
35.04347,156741
35.04972,155299
35.05597,159330
35.06223,153036
35.06848,155447
35.07473,160561
35.08100,158810
35.08725,155798
35.09350,156565
35.09977,154496
35.10602,162078
35.11227,152488
35.11853,156553
35.12478,158602
35.13103,156320
35.13730,158147
35.14355,157427
35.14980,152892
35.15607,154768
35.16232,154613
35.16857,156147
35.17483,154560
35.18108,159308
35.18733,154763
35.19360,157768
35.19985,153258
35.20610,155103
35.21235,153236
35.21862,158167
35.22487,157396
35.23112,152169
35.23738,152993
35.24363,151655
35.24988,155486
35.25615,156446
35.26240,160406
35.26865,154265
35.27492,152783
35.28117,154208
35.28742,155552
35.29368,154003
35.29993,155509
35.30618,155581
35.31245,151931
35.31870,155361
35.32495,154183
35.33122,157357
35.33747,152337
35.34372,152840
35.34998,159546
35.35623,154921
35.36248,158419
35.36875,151265
35.37500,153402
35.38125,152026
35.38752,155956
35.39377,149969
35.40002,149819
35.40628,157878
35.41253,151724
35.41878,156572
35.42505,149959
35.43130,156895
35.43755,156172
35.44380,149853
35.45007,153168
35.45632,153565
35.46257,152876
35.46883,150550
35.47508,151841
35.48133,152684
35.48760,154667
35.49385,160616
35.50010,160103
35.50637,156489
35.51262,155806
35.51887,155234
35.52513,151029
35.53138,156216
35.53763,155180
35.54390,152612
35.55015,151774
35.55640,153728
35.56267,153326
35.56892,148621
35.57517,150456
35.58143,150525
35.58768,154905
35.59393,153142
35.60020,156342
35.60645,152859
35.61270,152542
35.61897,154785
35.62522,159174
35.63147,149601
35.63773,155002
35.64398,154939
35.65023,153538
35.65648,154902
35.66275,153436
35.66900,153954
35.67525,154483
35.68152,158094
35.68777,153081
35.69402,152376
35.70028,157171
35.70653,153456
35.71278,150849
35.71905,152695
35.72530,154037
35.73155,153763
35.73782,149410
35.74407,153392
35.75032,151363
35.75658,152728
35.76283,152297
35.76908,150785
35.77535,150537
35.78160,151608
35.78785,152500
35.79412,153906
35.80037,150946
35.80662,152372
35.81288,149115
35.81913,149427
35.82538,146918
35.83165,151523
35.83790,152759
35.84415,152411
35.85042,152196
35.85667,149283
35.86292,149013
35.86917,147241
35.87543,150471
35.88168,151390
35.88793,151632
35.89420,150365
35.90045,150273
35.90670,151220
35.91297,152899
35.91922,150922
35.92547,152387
35.93173,149124
35.93798,152692
35.94423,147725
35.95050,144835
35.95675,147286
35.96300,146341
35.96927,151900
35.97552,153292
35.98177,147530
35.98803,150333
35.99428,153438
36.00053,147593
36.00680,147186
36.01305,151610
36.01930,150402
36.02557,145957
36.03182,151825
36.03807,152869
36.04433,149915
36.05058,150330
36.05683,146738
36.06310,148928
36.06935,147244
36.07560,145993
36.08187,153055
36.08812,148965
36.09437,147662
36.10062,146520
36.10688,145729
36.11313,150191
36.11938,148825
36.12565,150661
36.13190,150677
36.13815,148573
36.14442,150953
36.15067,151224
36.15692,147858
36.16318,147613
36.16943,144781
36.17568,148089
36.18195,151441
36.18820,146636
36.19445,148120
36.20072,150971
36.20697,149341
36.21322,148056
36.21948,148953
36.22573,145632
36.23198,152520
36.23825,149795
36.24450,155468
36.25075,151573
36.25702,151670
36.26327,154189
36.26952,154386
36.27578,155032
36.28203,156468
36.28828,158757
36.29455,166207
36.30080,170334
36.30705,177111
36.31332,190638
36.31957,201062
36.32582,213374
36.33207,213850
36.33833,221321
36.34458,230695
36.35083,242791
36.35710,247176
36.36335,253084
36.36960,256107
36.37587,263230
36.38212,254464
36.38837,255249
36.39463,253329
36.40088,243541
36.40713,233984
36.41340,227429
36.41965,217261
36.42590,202759
36.43217,196028
36.43842,184311
36.44467,183736
36.45093,180548
36.45718,171316
36.46343,168575
36.46970,168241
36.47595,165351
36.48220,166415
36.48847,157112
36.49472,164876
36.50097,157038
36.50723,160140
36.51348,156271
36.51973,155242
36.52600,158653
36.53225,159585
36.53850,156082
36.54475,155213
36.55102,154115
36.55727,155606
36.56352,152489
36.56978,152219
36.57603,152293
36.58228,157687
36.58855,156937
36.59480,157502
36.60105,154291
36.60732,153054
36.61357,154774
36.61982,153546
36.62608,155192
36.63233,156468
36.63858,152757
36.64485,152149
36.65110,155556
36.65735,154301
36.66362,155645
36.66987,153931
36.67612,152305
36.68238,153320
36.68863,152411
36.69488,155062
36.70115,154512
36.70740,153659
36.71365,154293
36.71992,155295
36.72617,153743
36.73242,154180
36.73868,152386
36.74493,152954
36.75118,147011
36.75745,154182
36.76370,147293
36.76995,149417
36.77620,152014
36.78247,152398
36.78872,149892
36.79497,145562
36.80123,147984
36.80748,147559
36.81373,152088
36.82000,149565
36.82625,147752
36.83250,144732
36.83877,144640
36.84502,149446
36.85127,144683
36.85753,149325
36.86378,143772
36.87003,147759
36.87630,151228
36.88255,146347
36.88880,150513
36.89507,146282
36.90132,144817
36.90757,149402
36.91383,145097
36.92008,144469
36.92633,149950
36.93260,149731
36.93885,148000
36.94510,142292
36.95137,152024
36.95762,146144
36.96387,147715
36.97013,142610
36.97638,145015
36.98263,146531
36.98888,149413
36.99515,143505
37.00140,144385
37.00765,148145
37.01392,141832
37.02017,147687
37.02642,147773
37.03268,151396
37.03893,145651
37.04518,146751
37.05145,149198
37.05770,150404
37.06395,147721
37.07022,145677
37.07647,145367
37.08272,145052
37.08898,145521
37.09523,146019
37.10148,145046
37.10775,147837
37.11400,142649
37.12025,146707
37.12652,145807
37.13277,147181
37.13902,149212
37.14528,146019
37.15153,143018
37.15778,144573
37.16405,143022
37.17030,144389
37.17655,142196
37.18282,144603
37.18907,144387
37.19532,145461
37.20157,145305
37.20783,145296
37.21408,144576
37.22033,144715
37.22660,142547
37.23285,144125
37.23910,144273
37.24537,145788
37.25162,142635
37.25787,142914
37.26413,141243
37.27038,145722
37.27663,137791
37.28290,145543
37.28915,146195
37.29540,145122
37.30167,144421
37.30792,144732
37.31417,142942
37.32043,140466
37.32668,142740
37.33293,143446
37.33920,141277
37.34545,139197
37.35170,144103
37.35797,143189
37.36422,143610
37.37047,143486
37.37673,140192
37.38298,145459
37.38923,142839
37.39550,140830
37.40175,143457
37.40800,138982
37.41427,137331
37.42052,144479
37.42677,144016
37.43302,146253
37.43928,143588
37.44553,139577
37.45178,143170
37.45805,139927
37.46430,141458
37.47055,140251
37.47682,140446
37.48307,136914
37.48932,138804
