D:\MassHunter\GCMS\1\data\metastasis_lineages_3replicates_3runs_10302020\P_plate2_run2_10302020.D Sat Oct 31 03:03:17 2020
Start of data points
5.99358,164732
5.99983,173488
6.00610,182882
6.01235,193246
6.01860,186255
6.02487,174196
6.03112,168955
6.03737,180051
6.04363,200050
6.04988,212972
6.05613,197391
6.06240,191825
6.06865,208506
6.07490,217853
6.08117,201936
6.08742,183751
6.09367,177457
6.09993,284975
6.10618,577650
6.11243,952116
6.11870,1003418
6.12495,688492
6.13120,382203
6.13747,238898
6.14372,208458
6.14997,228640
6.15623,339311
6.16248,559911
6.16873,863549
6.17498,1012799
6.18125,820550
6.18750,514157
6.19375,306447
6.20002,225342
6.20627,187280
6.21252,179551
6.21878,164338
6.22503,153910
6.23128,144738
6.23755,144324
6.24380,178004
6.25005,165141
6.25632,160077
6.26257,155187
6.26882,159458
6.27508,169777
6.28133,173358
6.28758,173458
6.29385,184840
6.30010,237093
6.30635,382206
6.31262,706401
6.31887,1321895
6.32512,2941864
6.33138,6905168
6.33763,1.320728E+07
6.34388,1.8744E+07
6.35015,1.779638E+07
6.35640,9377428
6.36265,2220174
6.36892,465667
6.37517,255370
6.38142,226116
6.38767,217184
6.39393,225662
6.40018,246971
6.40643,374720
6.41270,587771
6.41895,727179
6.42520,702594
6.43147,803531
6.43772,976072
6.44397,951535
6.45023,957408
6.45648,1941180
6.46273,5240071
6.46900,1.172406E+07
6.47525,2.040239E+07
6.48150,2.885028E+07
6.48777,3.545846E+07
6.49402,4.02902E+07
6.50027,4.406294E+07
6.50653,4.624515E+07
6.51278,4.647459E+07
6.51903,4.608605E+07
6.52530,4.495706E+07
6.53155,4.385018E+07
6.53780,4.343821E+07
6.54407,3.603491E+07
6.55032,2532457
6.55657,1036916
6.56283,1022134
6.56908,1169682
6.57533,1636633
6.58160,2264040
6.58785,2523372
6.59410,1887086
6.60037,954883
6.60662,479303
6.61287,361211
6.61912,327921
6.62538,305292
6.63163,302387
6.63788,304632
6.64415,313340
6.65040,304537
6.65665,300984
6.66292,320461
6.66917,394212
6.67542,493266
6.68168,483846
6.68793,391418
6.69418,334625
6.70045,312696
6.70670,297784
6.71295,309651
6.71922,335143
6.72547,348191
6.73172,352200
6.73798,372294
6.74423,375961
6.75048,379065
6.75675,393806
6.76300,391864
6.76925,393962
6.77552,391585
6.78177,392674
6.78802,399452
6.79428,411627
6.80053,463721
6.80678,544304
6.81305,592073
6.81930,583280
6.82555,528582
6.83180,501700
6.83807,516424
6.84432,548368
6.85057,591358
6.85683,597269
6.86308,549985
6.86933,516491
6.87560,577970
6.88185,736775
6.88810,890128
6.89437,906705
6.90062,744708
6.90687,605883
6.91313,527699
6.91938,478960
6.92563,448820
6.93190,438333
6.93815,430209
6.94440,448384
6.95067,433557
6.95692,411483
6.96317,426341
6.96943,402200
6.97568,375760
6.98193,367988
6.98820,362034
6.99445,347953
7.00070,315514
7.00697,321710
7.01322,323654
7.01947,364734
7.02573,555965
7.03198,1275177
7.03823,3340298
7.04450,7163659
7.05075,1.051439E+07
7.05700,9828395
7.06325,5651561
7.06952,2007788
7.07577,599410
7.08202,278348
7.08828,225028
7.09453,191721
7.10078,184990
7.10705,177077
7.11330,163531
7.11955,152616
7.12582,149670
7.13207,156436
7.13832,223366
7.14458,341768
7.15083,488242
7.15708,529656
7.16335,373158
7.16960,220957
7.17585,158317
7.18212,138533
7.18837,136543
7.19462,173682
7.20088,222288
7.20713,275536
7.21338,285591
7.21965,213254
7.22590,166677
7.23215,163363
7.23842,176246
7.24467,224141
7.25092,377817
7.25718,743430
7.26343,1196186
7.26968,1272331
7.27593,941100
7.28220,518643
7.28845,286659
7.29470,195246
7.30097,178375
7.30722,174086
7.31347,162954
7.31973,148900
7.32598,137000
7.33223,128409
7.33850,131625
7.34475,131588
7.35100,123676
7.35727,127425
7.36352,128105
7.36977,114445
7.37603,121202
7.38228,135768
7.38853,155779
7.39480,166139
7.40105,166665
7.40730,157164
7.41357,193616
7.41982,276770
7.42607,355678
7.43233,398744
7.43858,358539
7.44483,275764
7.45110,208208
7.45735,175897
7.46360,187290
7.46987,211141
7.47612,220483
7.48237,212866
7.48862,212330
7.49488,240377
7.50113,308847
7.50738,357834
7.51365,345327
7.51990,256337
7.52615,175213
7.53242,137775
7.53867,135693
7.54492,173127
7.55118,470547
7.55743,1853828
7.56368,6159668
7.56995,1.382355E+07
7.57620,2.346727E+07
7.58245,3.074116E+07
7.58872,3.166259E+07
7.59497,2.277626E+07
7.60122,8849587
7.60748,3500116
7.61373,2392252
7.61998,1694160
7.62625,1107640
7.63250,761260
7.63875,519810
7.64502,350343
7.65127,262860
7.65752,227925
7.66378,223540
7.67003,268047
7.67628,366141
7.68255,507597
7.68880,535598
7.69505,435244
7.70132,299866
7.70757,242441
7.71382,284437
7.72007,386225
7.72633,429095
7.73258,389135
7.73883,316151
7.74510,267768
7.75135,220391
7.75760,188505
7.76387,170305
7.77012,164572
7.77637,171666
7.78263,173957
7.78888,177642
7.79513,171854
7.80140,166377
7.80765,164051
7.81390,173325
7.82017,219718
7.82642,329041
7.83267,424343
7.83893,428053
7.84518,329823
7.85143,251006
7.85770,235728
7.86395,271723
7.87020,295617
7.87647,274741
7.88272,236638
7.88897,207690
7.89523,194916
7.90148,195026
7.90773,205170
7.91400,211393
7.92025,208990
7.92650,209113
7.93275,192869
7.93902,206469
7.94527,233575
7.95152,321895
7.95778,397226
7.96403,398069
7.97028,336595
7.97655,294157
7.98280,326326
7.98905,456668
7.99532,738121
8.00157,1019236
8.00782,1217482
8.01408,1662166
8.02033,2361743
8.02658,2656602
8.03285,2137060
8.03910,1344277
8.04535,966693
8.05162,997247
8.05787,1080336
8.06412,934822
8.07038,636846
8.07663,386072
8.08288,365936
8.08915,523325
8.09540,726499
8.10165,881818
8.10792,1000808
8.11417,1209916
8.12042,1425518
8.12668,1256794
8.13293,780111
8.13918,397026
8.14543,238394
8.15170,188072
8.15795,166370
8.16420,154963
8.17047,155475
8.17672,142145
8.18297,139610
8.18923,138138
8.19548,133258
8.20173,135023
8.20800,130479
8.21425,135851
8.22050,159973
8.22677,252287
8.23302,401454
8.23927,523009
8.24553,505669
8.25178,355615
8.25803,247745
8.26430,198712
8.27055,183946
8.27680,198901
8.28307,211852
8.28932,235332
8.29557,236910
8.30183,205160
8.30808,160359
8.31433,123626
8.32060,111290
8.32685,117344
8.33310,110011
8.33937,112320
8.34562,108860
8.35187,112277
8.35813,112112
8.36438,120230
8.37063,116880
8.37688,116515
8.38315,101135
8.38940,113923
8.39565,141928
8.40192,261469
8.40817,454256
8.41442,566471
8.42068,449699
8.42693,273614
8.43318,173240
8.43945,170854
8.44570,221783
8.45195,298198
8.45822,308419
8.46447,262464
8.47072,192806
8.47698,145250
8.48323,128091
8.48948,118836
8.49575,120231
8.50200,137327
8.50825,145907
8.51452,143015
8.52077,128622
8.52702,109013
8.53328,95665
8.53953,89041
8.54578,90161
8.55205,101454
8.55830,136356
8.56455,225611
8.57082,390075
8.57707,609750
8.58332,971350
8.58957,1436654
8.59583,1669460
8.60208,1513618
8.60833,1706297
8.61460,3546119
8.62085,7873991
8.62710,1.347925E+07
8.63337,1.61893E+07
8.63962,1.256363E+07
8.64587,5406163
8.65213,1441164
8.65838,365662
8.66463,198710
8.67090,178642
8.67715,171039
8.68340,164779
8.68967,175344
8.69592,188956
8.70217,187891
8.70843,192758
8.71468,195742
8.72093,189607
8.72720,174982
8.73345,152301
8.73970,148699
8.74597,160540
8.75222,165566
8.75847,146019
8.76473,116883
8.77098,96998
8.77723,89934
8.78350,96563
8.78975,93480
8.79600,89707
8.80227,83728
8.80852,79306
8.81477,85583
8.82102,84709
8.82728,119570
8.83353,293061
8.83978,882310
8.84605,2325758
8.85230,4759939
8.85855,7029383
8.86482,7576002
8.87107,6119920
8.87732,4473370
8.88358,3884537
8.88983,4345845
8.89608,5030748
8.90235,4852773
8.90860,2961675
8.91485,1171274
8.92112,504355
8.92737,270948
8.93362,174118
8.93988,140770
8.94613,134265
8.95238,152796
8.95865,186709
8.96490,233970
8.97115,259637
8.97742,274249
8.98367,286000
8.98992,328797
8.99618,427534
9.00243,606528
9.00868,769365
9.01495,781596
9.02120,605454
9.02745,426058
9.03370,425272
9.03997,681586
9.04622,979421
9.05247,1005747
9.05873,693398
9.06498,379569
9.07123,216100
9.07750,162743
9.08375,144775
9.09000,155215
9.09627,165749
9.10252,162562
9.10877,152780
9.11503,134141
9.12128,118557
9.12753,110687
9.13380,125358
9.14005,147144
9.14630,162650
9.15257,185127
9.15882,224638
9.16507,273096
9.17133,287662
9.17758,283116
9.18383,299122
9.19010,363342
9.19635,413606
9.20260,359292
9.20887,260445
9.21512,218147
9.22137,169938
9.22763,151856
9.23388,160702
9.24013,226736
9.24640,279205
9.25265,294371
9.25890,250363
9.26515,189483
9.27142,148001
9.27767,118154
9.28392,121320
9.29018,148680
9.29643,204934
9.30268,313325
9.30895,400861
9.31520,462926
9.32145,512958
9.32772,511765
9.33397,520304
9.34022,666949
9.34648,1040913
9.35273,1356224
9.35898,1285423
9.36525,896231
9.37150,581726
9.37775,957138
9.38402,3184328
9.39027,8394548
9.39652,1.450285E+07
9.40278,1.810551E+07
9.40903,1.52738E+07
9.41528,8240816
9.42155,2637510
9.42780,998679
9.43405,1922329
9.44032,6176575
9.44657,1.505203E+07
9.45282,2.733641E+07
9.45908,3.540699E+07
9.46533,3.467564E+07
9.47158,2.520828E+07
9.47783,1.122426E+07
9.48410,2886476
9.49035,786188
9.49660,373212
9.50287,263345
9.50912,237723
9.51537,239462
9.52163,245019
9.52788,242466
9.53413,237249
9.54040,236408
9.54665,230083
9.55290,218699
9.55917,206420
9.56542,222276
9.57167,247261
9.57793,268118
9.58418,256323
9.59043,239055
9.59670,220000
9.60295,229603
9.60920,258982
9.61547,292450
9.62172,295071
9.62797,249061
9.63423,192752
9.64048,165103
9.64673,166755
9.65300,168313
9.65925,170302
9.66550,166549
9.67177,182450
9.67802,457047
9.68427,1746650
9.69053,5735759
9.69678,1.214411E+07
9.70303,1.729885E+07
9.70928,1.710009E+07
9.71555,1.126209E+07
9.72180,4945351
9.72805,3319124
9.73432,5024578
9.74057,7032831
9.74682,6633454
9.75308,4335600
9.75933,1780826
9.76558,609437
9.77185,292382
9.77810,209108
9.78435,184152
9.79062,165893
9.79687,150431
9.80312,140226
9.80938,146978
9.81563,141075
9.82188,135270
9.82815,137902
9.83440,154064
9.84065,181155
9.84692,250531
9.85317,571884
9.85942,1835302
9.86568,5382517
9.87193,1.141402E+07
9.87818,1.685657E+07
9.88445,1.729948E+07
9.89070,1.170499E+07
9.89695,4896677
9.90322,2116924
9.90947,2052445
9.91572,2235773
9.92197,1669665
9.92823,862764
9.93448,382135
9.94073,234884
9.94700,209279
9.95325,247491
9.95950,364255
9.96577,639999
9.97202,1037996
9.97827,1452851
9.98453,1805193
9.99078,2091845
9.99703,2231794
10.00330,1877053
10.00955,1166630
10.01580,630372
10.02207,365891
10.02832,274767
10.03457,229693
10.04083,191441
10.04708,185073
10.05333,189058
10.05960,179762
10.06585,158205
10.07210,139622
10.07837,140521
10.08462,154939
10.09087,178094
10.09713,187379
10.10338,214101
10.10963,250779
10.11590,271728
10.12215,257706
10.12840,224673
10.13465,173983
10.14092,140561
10.14717,123918
10.15342,122995
10.15968,123424
10.16593,117865
10.17218,119759
10.17845,167139
10.18470,161831
10.19095,175143
10.19722,153448
10.20347,137705
10.20972,136851
10.21598,181736
10.22223,341263
10.22848,605083
10.23475,824361
10.24100,869844
10.24725,744563
10.25352,544243
10.25977,362885
10.26602,257376
10.27228,209896
10.27853,188625
10.28478,204546
10.29105,286450
10.29730,362518
10.30355,335939
10.30982,246549
10.31607,184531
10.32232,186586
10.32858,253542
10.33483,414076
10.34108,551919
10.34735,518434
10.35360,342986
10.35985,206880
10.36610,159186
10.37237,138479
10.37862,130337
10.38487,114514
10.39113,110249
10.39738,99535
10.40363,93024
10.40990,87096
10.41615,89186
10.42240,105794
10.42867,111890
10.43492,121241
10.44117,119577
10.44743,129188
10.45368,132094
10.45993,133473
10.46620,135280
10.47245,152875
10.47870,219385
10.48497,354212
10.49122,458734
10.49747,417454
10.50373,294386
10.50998,181515
10.51623,127955
10.52250,112098
10.52875,129762
10.53500,177019
10.54127,213932
10.54752,220695
10.55377,190804
10.56003,163153
10.56628,156701
10.57253,163054
10.57878,185191
10.58505,201300
10.59130,203380
10.59755,235294
10.60382,487137
10.61007,1590086
10.61632,4239512
10.62258,8443315
10.62883,1.169892E+07
10.63508,1.115043E+07
10.64135,6769697
10.64760,2563694
10.65385,709085
10.66012,244924
10.66637,165175
10.67262,164147
10.67888,175316
10.68513,172556
10.69138,155675
10.69765,132940
10.70390,117208
10.71015,112266
10.71642,119043
10.72267,125762
10.72892,135445
10.73518,144182
10.74143,149491
10.74768,151897
10.75395,139211
10.76020,141340
10.76645,148200
10.77272,160898
10.77897,166142
10.78522,170388
10.79147,156386
10.79773,148940
10.80398,162225
10.81023,221416
10.81650,336455
10.82275,416093
10.82900,381428
10.83527,273757
10.84152,180321
10.84777,139491
10.85403,136661
10.86028,150616
10.86653,150244
10.87280,159120
10.87905,163569
10.88530,156665
10.89157,155634
10.89782,162296
10.90407,179162
10.91033,189621
10.91658,177764
10.92283,178532
10.92910,181524
10.93535,182776
10.94160,157876
10.94787,132231
10.95412,133745
10.96037,193257
10.96663,532041
10.97288,1723111
10.97913,4746374
10.98540,1.015729E+07
10.99165,1.589155E+07
10.99790,1.920787E+07
11.00417,1.667526E+07
11.01042,8861134
11.01667,2799508
11.02292,696209
11.02918,247224
11.03543,209725
11.04168,231701
11.04795,244182
11.05420,258369
11.06045,289087
11.06672,293924
11.07297,257036
11.07922,188510
11.08548,143649
11.09173,139010
11.09798,148807
11.10425,169190
11.11050,180923
11.11675,177147
11.12302,180186
11.12927,183195
11.13552,186665
11.14178,189584
11.14803,192036
11.15428,229839
11.16055,328061
11.16680,470149
11.17305,579455
11.17932,505464
11.18557,339069
11.19182,215935
11.19808,154881
11.20433,151441
11.21058,175898
11.21685,206675
11.22310,221791
11.22935,219113
11.23560,204083
11.24187,192749
11.24812,203462
11.25437,227672
11.26063,235419
11.26688,217121
11.27313,208392
11.27940,228007
11.28565,245651
11.29190,227494
11.29817,197932
11.30442,164596
11.31067,163566
11.31693,203104
11.32318,322226
11.32943,510273
11.33570,618257
11.34195,532344
11.34820,334051
11.35447,196736
11.36072,135491
11.36697,125558
11.37323,133978
11.37948,133081
11.38573,123713
11.39200,117004
11.39825,124296
11.40450,127714
11.41077,130847
11.41702,132378
11.42327,131984
11.42953,143558
11.43578,193753
11.44203,320579
11.44830,486089
11.45455,634553
11.46080,639551
11.46705,470582
11.47332,303092
11.47957,224021
11.48582,221950
11.49208,208226
11.49833,185495
11.50458,161061
11.51085,145170
11.51710,139149
11.52335,134154
11.52962,133121
11.53587,131633
11.54212,137434
11.54838,132080
11.55463,125221
11.56088,117883
11.56715,108845
11.57340,108688
11.57965,108737
11.58592,120233
11.59217,127302
11.59842,135214
11.60468,137336
11.61093,129271
11.61718,127994
11.62345,123977
11.62970,129669
11.63595,122355
11.64222,130263
11.64847,143006
11.65472,163783
11.66098,172883
11.66723,170761
11.67348,153989
11.67973,144584
11.68600,130941
11.69225,133792
11.69850,151937
11.70477,212715
11.71102,321559
11.71727,446897
11.72353,511808
11.72978,471167
11.73603,353758
11.74230,252293
11.74855,196463
11.75480,167909
11.76107,169796
11.76732,184615
11.77357,200434
11.77983,207919
11.78608,206950
11.79233,207122
11.79860,219616
11.80485,210669
11.81110,202920
11.81737,186342
11.82362,184884
11.82987,230956
11.83613,352716
11.84238,489401
11.84863,537248
11.85490,437809
11.86115,313094
11.86740,221707
11.87367,186246
11.87992,195572
11.88617,258812
11.89243,367547
11.89868,460702
11.90493,450891
11.91118,378165
11.91745,285910
11.92370,223941
11.92995,198582
11.93622,235957
11.94247,418429
11.94872,904090
11.95498,2000801
11.96123,3567804
11.96748,5257613
11.97375,5684330
11.98000,4145213
11.98625,1955584
11.99252,773415
11.99877,420262
12.00502,388786
12.01128,409939
12.01753,384238
12.02378,360809
12.03005,366286
12.03630,445010
12.04255,636377
12.04882,887431
12.05507,1123367
12.06132,1171813
12.06758,961634
12.07383,679018
12.08008,485589
12.08635,402144
12.09260,396890
12.09885,391149
12.10512,369149
12.11137,321149
12.11762,257137
12.12387,219273
12.13013,196887
12.13638,194193
12.14263,186069
12.14890,178436
12.15515,169710
12.16140,167985
12.16767,165453
12.17392,168864
12.18017,208713
12.18643,203760
12.19268,261743
12.19893,357556
12.20520,503843
12.21145,732855
12.21770,1022270
12.22397,1259235
12.23022,1277723
12.23647,1026759
12.24273,763002
12.24898,675702
12.25523,888817
12.26150,1388273
12.26775,2219091
12.27400,2990491
12.28027,3165668
12.28652,2643864
12.29277,1563976
12.29903,695239
12.30528,316235
12.31153,191933
12.31780,156973
12.32405,146467
12.33030,148142
12.33657,162928
12.34282,192343
12.34907,224453
12.35532,253336
12.36158,261149
12.36783,258791
12.37408,244666
12.38035,251464
12.38660,298785
12.39285,360085
12.39912,450786
12.40537,366386
12.41162,287422
12.41788,264088
12.42413,268574
12.43038,295208
12.43665,343683
12.44290,356399
12.44915,337714
12.45542,296992
12.46167,280017
12.46792,295604
12.47418,371529
12.48043,587400
12.48668,968020
12.49295,1479491
12.49920,1759748
12.50545,1684693
12.51172,1187774
12.51797,645792
12.52422,343167
12.53048,281258
12.53673,326687
12.54298,414760
12.54925,490124
12.55550,485638
12.56175,421970
12.56800,394933
12.57427,585866
12.58052,1073001
12.58677,1897550
12.59303,2776309
12.59928,3225704
12.60553,2822014
12.61180,2372247
12.61805,2470114
12.62430,3386475
12.63057,4839557
12.63682,6927493
12.64307,9922403
12.64933,1.337608E+07
12.65558,1.815878E+07
12.66183,2.368652E+07
12.66810,2.923655E+07
12.67435,3.432847E+07
12.68060,3.47714E+07
12.68687,3.113352E+07
12.69312,1.97331E+07
12.69937,5664529
12.70563,1244684
12.71188,777351
12.71813,943485
12.72440,1186961
12.73065,1258872
12.73690,1205292
12.74317,1236648
12.74942,1234365
12.75567,1064604
12.76193,827905
12.76818,648734
12.77443,515106
12.78068,468310
12.78695,457937
12.79320,489807
12.79945,487247
12.80572,454252
12.81197,401205
12.81822,373156
12.82448,386160
12.83073,431745
12.83698,453756
12.84325,419807
12.84950,385285
12.85575,346402
12.86202,344196
12.86827,339974
12.87452,341532
12.88078,372536
12.88703,486237
12.89328,721003
12.89955,1000375
12.90580,1138687
12.91205,1042918
12.91832,889542
12.92457,706997
12.93082,532622
12.93708,386787
12.94333,313430
12.94958,281226
12.95585,277908
12.96210,267798
12.96835,258679
12.97462,243819
12.98087,248220
12.98712,262053
12.99338,281774
12.99963,317238
13.00588,349181
13.01213,369333
13.01840,413455
13.02465,522624
13.03090,720445
13.03717,955397
13.04342,1040833
13.04967,901445
13.05593,604899
13.06218,495685
13.06843,680053
13.07470,1280810
13.08095,2437301
13.08720,3941937
13.09347,4613448
13.09972,3795990
13.10597,2269943
13.11223,1219563
13.11848,762237
13.12473,541367
13.13100,423941
13.13725,382186
13.14350,372601
13.14977,373604
13.15602,352415
13.16227,320375
13.16853,302697
13.17478,285623
13.18103,266891
13.18730,250511
13.19355,239004
13.19980,238944
13.20607,239879
13.21232,240655
13.21857,253333
13.22482,276423
13.23108,304493
13.23733,340976
13.24358,362525
13.24985,351860
13.25610,341089
13.26235,345649
13.26862,373063
13.27487,370895
13.28112,359604
13.28738,401386
13.29363,536463
13.29988,802346
13.30615,1264870
13.31240,1866901
13.31865,1968605
13.32492,1591797
13.33117,899398
13.33742,469894
13.34368,349670
13.34993,330315
13.35618,345883
13.36245,331433
13.36870,307833
13.37495,295555
13.38122,270252
13.38747,255419
13.39372,244854
13.39998,241888
13.40623,239899
13.41248,239667
13.41875,256335
13.42500,303065
13.43125,338660
13.43750,380829
13.44377,428611
13.45002,419585
13.45627,381788
13.46253,329997
13.46878,287029
13.47503,271447
13.48130,270645
13.48755,265467
13.49380,266484
13.50007,268748
13.50632,288325
13.51257,286044
13.51883,302553
13.52508,305440
13.53133,314955
13.53760,344343
13.54385,449075
13.55010,609453
13.55637,839685
13.56262,947592
13.56887,885407
13.57513,670340
13.58138,583056
13.58763,639589
13.59390,900196
13.60015,1368707
13.60640,1914852
13.61267,2044423
13.61892,1664029
13.62517,1097564
13.63143,724567
13.63768,547158
13.64393,461335
13.65020,433220
13.65645,452460
13.66270,444958
13.66895,427023
13.67522,417170
13.68147,430399
13.68772,491561
13.69398,570661
13.70023,617001
13.70648,593279
13.71275,482599
13.71900,406210
13.72525,366435
13.73152,356215
13.73777,351450
13.74402,345188
13.75028,395371
13.75653,532557
13.76278,835433
13.76905,1168190
13.77530,1316871
13.78155,1067944
13.78782,746611
13.79407,602774
13.80032,847061
13.80658,1741637
13.81283,3525137
13.81908,6242626
13.82535,1.005957E+07
13.83160,1.559885E+07
13.83785,2.165146E+07
13.84412,2.71874E+07
13.85037,2.536426E+07
13.85662,1.424709E+07
13.86288,4016372
13.86913,910127
13.87538,410134
13.88163,447296
13.88790,749236
13.89415,1520969
13.90040,2844153
13.90667,5120435
13.91292,8840557
13.91917,1.166421E+07
13.92543,1.141207E+07
13.93168,7299832
13.93793,3310426
13.94420,1027395
13.95045,347457
13.95670,237662
13.96297,236372
13.96922,226656
13.97547,217836
13.98173,217567
13.98798,215927
13.99423,217838
14.00050,245617
14.00675,281414
14.01300,319573
14.01927,342882
14.02552,311270
14.03177,262132
14.03803,204526
14.04428,190352
14.05053,171831
14.05680,180815
14.06305,191212
14.06930,213433
14.07557,239528
14.08182,230552
14.08807,207568
14.09433,175540
14.10058,150389
14.10683,134278
14.11308,132977
14.11935,140664
14.12560,145662
14.13185,150263
14.13812,148391
14.14437,140099
14.15062,137463
14.15688,142349
14.16313,145740
14.16938,136171
14.17565,134989
14.18190,124577
14.18815,123300
14.19442,132491
14.20067,151751
14.20692,197039
14.21318,289575
14.21943,458878
14.22568,687729
14.23195,917646
14.23820,934215
14.24445,757031
14.25072,499924
14.25697,364169
14.26322,415164
14.26948,704943
14.27573,1225511
14.28198,1638836
14.28825,1551371
14.29450,1012035
14.30075,512382
14.30702,289868
14.31327,240644
14.31952,259904
14.32577,332814
14.33203,396621
14.33828,387465
14.34453,325572
14.35080,259742
14.35705,210954
14.36330,175974
14.36957,171061
14.37582,177199
14.38207,183004
14.38833,207862
14.39458,246954
14.40083,370814
14.40710,705062
14.41335,1639007
14.41960,3383398
14.42587,5417312
14.43212,6376809
14.43837,5380768
14.44463,3618265
14.45088,2339145
14.45713,1686451
14.46340,1302060
14.46965,1153551
14.47590,1157557
14.48217,1189615
14.48842,1062991
14.49467,827330
14.50093,591436
14.50718,372880
14.51343,263359
14.51970,229046
14.52595,244904
14.53220,267483
14.53845,263725
14.54472,234908
14.55097,213832
14.55722,205871
14.56348,204418
14.56973,204761
14.57598,208787
14.58225,204830
14.58850,190236
14.59475,178983
14.60102,176786
14.60727,187754
14.61352,194303
14.61978,202348
14.62603,206972
14.63228,222939
14.63855,281639
14.64480,382766
14.65105,490656
14.65732,541467
14.66357,464451
14.66982,369472
14.67608,295565
14.68233,276158
14.68858,303875
14.69485,375515
14.70110,480738
14.70735,561438
14.71362,565131
14.71987,561928
14.72612,670193
14.73238,999186
14.73863,1543218
14.74488,1991342
14.75115,2258150
14.75740,2478093
14.76365,2791142
14.76990,2719530
14.77617,1968125
14.78242,1023477
14.78867,481013
14.79493,346601
14.80118,519793
14.80743,927217
14.81370,1400168
14.81995,1533166
14.82620,1196183
14.83247,668886
14.83872,326028
14.84497,211390
14.85123,205707
14.85748,250059
14.86373,339093
14.87000,425853
14.87625,451597
14.88250,382197
14.88877,294832
14.89502,246549
14.90127,241825
14.90753,311304
14.91378,458950
14.92003,700604
14.92630,871606
14.93255,881918
14.93880,750132
14.94507,580450
14.95132,495523
14.95757,566486
14.96383,931548
14.97008,1785906
14.97633,3351995
14.98258,5247162
14.98885,5521304
14.99510,4127213
15.00135,2075221
15.00762,838267
15.01387,383982
15.02012,267318
15.02638,233426
15.03263,228493
15.03888,244761
15.04515,277714
15.05140,313222
15.05765,321495
15.06392,312170
15.07017,295733
15.07642,272079
15.08268,259527
15.08893,271128
15.09518,296616
15.10145,341482
15.10770,376350
15.11395,412685
15.12022,473881
15.12647,579083
15.13272,706306
15.13898,831495
15.14523,923180
15.15148,996250
15.15775,1163434
15.16400,1720503
15.17025,2995566
15.17652,4320340
15.18277,5125849
15.18902,4034267
15.19528,2060237
15.20153,908853
15.20778,463709
15.21403,318439
15.22030,240046
15.22655,204006
15.23280,190825
15.23907,192886
15.24532,205471
15.25157,222443
15.25783,243422
15.26408,252988
15.27033,242324
15.27660,214606
15.28285,192565
15.28910,171984
15.29537,171125
15.30162,177537
15.30787,184079
15.31413,198840
15.32038,234414
15.32663,287665
15.33290,314126
15.33915,286215
15.34540,235491
15.35167,209146
15.35792,215173
15.36417,247416
15.37043,273589
15.37668,258979
15.38293,228031
15.38920,204751
15.39545,188174
15.40170,174271
15.40797,165379
15.41422,165118
15.42047,190948
15.42672,262123
15.43298,377910
15.43923,497204
15.44548,610892
15.45175,763502
15.45800,867985
15.46425,807211
15.47052,615385
15.47677,411841
15.48302,278272
15.48928,207528
15.49553,194608
15.50178,210485
15.50805,271169
15.51430,430578
15.52055,886939
15.52682,2000838
15.53307,3823785
15.53932,5742676
15.54558,7207522
15.55183,9622671
15.55808,1.292608E+07
15.56435,1.509343E+07
15.57060,1.227306E+07
15.57685,5398246
15.58312,1491719
15.58937,539370
15.59562,380938
15.60188,351122
15.60813,361125
15.61438,383238
15.62065,386905
15.62690,364901
15.63315,334497
15.63942,322276
15.64567,301315
15.65192,264620
15.65817,228768
15.66443,211284
15.67068,213052
15.67693,220742
15.68320,237203
15.68945,249930
15.69570,252929
15.70197,244993
15.70822,238159
15.71447,219843
15.72073,191086
15.72698,183216
15.73323,184448
15.73950,195852
15.74575,205490
15.75200,225049
15.75827,229672
15.76452,209030
15.77077,182909
15.77703,153004
15.78328,142080
15.78953,137914
15.79580,147861
15.80205,154194
15.80830,160391
15.81457,162910
15.82082,171335
15.82707,195470
15.83333,256783
15.83958,355976
15.84583,536893
15.85210,666708
15.85835,632772
15.86460,456408
15.87085,285857
15.87712,211101
15.88337,198201
15.88962,195400
15.89588,194530
15.90213,184309
15.90838,174286
15.91465,157415
15.92090,153406
15.92715,151121
15.93342,156633
15.93967,165077
15.94592,179228
15.95218,212363
15.95843,294242
15.96468,436326
15.97095,547533
15.97720,521535
15.98345,403100
15.98972,250788
15.99597,170401
16.00222,154368
16.00848,189228
16.01473,271753
16.02098,425125
16.02725,592340
16.03350,678433
16.03975,687811
16.04602,736613
16.05227,843153
16.05852,913311
16.06478,798723
16.07103,578404
16.07728,521180
16.08353,650221
16.08980,853863
16.09605,970009
16.10230,953602
16.10857,1018429
16.11482,1403851
16.12107,2283204
16.12733,3363725
16.13358,3882650
16.13983,3154699
16.14610,1942215
16.15235,855847
16.15860,403651
16.16487,281816
16.17112,260216
16.17737,254918
16.18363,248138
16.18988,260230
16.19613,290543
16.20240,320885
16.20865,301381
16.21490,250257
16.22117,235423
16.22742,334985
16.23367,546047
16.23993,814568
16.24618,896080
16.25243,705191
16.25870,451347
16.26495,283577
16.27120,218674
16.27747,190356
16.28372,178085
16.28997,186132
16.29623,213847
16.30248,294972
16.30873,417931
16.31498,501385
16.32125,452754
16.32750,335771
16.33375,244295
16.34002,200016
16.34627,182402
16.35252,177520
16.35878,179888
16.36503,179946
16.37128,174629
16.37755,172021
16.38380,164070
16.39005,163043
16.39632,163488
16.40257,170370
16.40882,170201
16.41508,172535
16.42133,171822
16.42758,184303
16.43385,243847
16.44010,394267
16.44635,672314
16.45262,907590
16.45887,930552
16.46512,792704
16.47138,592404
16.47763,482786
16.48388,399310
16.49015,320469
16.49640,268703
16.50265,250412
16.50892,266362
16.51517,329439
16.52142,435949
16.52767,521439
16.53393,550678
16.54018,502226
16.54643,443887
16.55270,381931
16.55895,345273
16.56520,305679
16.57147,278995
16.57772,258768
16.58397,259330
16.59023,267689
16.59648,269266
16.60273,265077
16.60900,268090
16.61525,271057
16.62150,278488
16.62777,293579
16.63402,312215
16.64027,329296
16.64653,374674
16.65278,410761
16.65903,408557
16.66530,363743
16.67155,318037
16.67780,300679
16.68407,303323
16.69032,327945
16.69657,322449
16.70283,303820
16.70908,269493
16.71533,245754
16.72160,226973
16.72785,231691
16.73410,241361
16.74035,245135
16.74662,259117
16.75287,292278
16.75912,360858
16.76538,517143
16.77163,861047
16.77788,1405138
16.78415,2104428
16.79040,2412882
16.79665,2587904
16.80292,3109735
16.80917,4224964
16.81542,5212304
16.82168,5876274
16.82793,6921564
16.83418,9285765
16.84045,1.145889E+07
16.84670,1.307877E+07
16.85295,1.238552E+07
16.85922,9337347
16.86547,5538245
16.87172,3599766
16.87798,3086232
16.88423,3140309
16.89048,3359224
16.89675,3448320
16.90300,3242337
16.90925,2767503
16.91552,2331088
16.92177,2297016
16.92802,2635204
16.93428,3158279
16.94053,3462673
16.94678,3393498
16.95305,3188176
16.95930,3022772
16.96555,2873569
16.97180,2458687
16.97807,1913009
16.98432,1334336
16.99057,1078362
16.99683,966008
17.00308,1089560
17.00933,1663601
17.01560,3428755
17.02185,7105077
17.02810,1.187122E+07
17.03437,1.738166E+07
17.04062,2.196497E+07
17.04687,2.734493E+07
17.05313,3.413892E+07
17.05938,4.296214E+07
17.06563,4.863554E+07
17.07190,5.029585E+07
17.07815,4.888257E+07
17.08440,4.587112E+07
17.09067,4.35271E+07
17.09692,4.185761E+07
17.10317,4.21275E+07
17.10943,4.714917E+07
17.11568,1.635933E+07
17.12193,8419090
17.12820,8407262
17.13445,7793853
17.14070,6371162
17.14697,5674206
17.15322,7487278
17.15947,1.297113E+07
17.16573,2.229363E+07
17.17198,3.257728E+07
17.17823,4.118708E+07
17.18448,4.320196E+07
17.19075,3.569932E+07
17.19700,1.637294E+07
17.20325,4371027
17.20952,2649504
17.21577,3074331
17.22202,3954068
17.22828,5025651
17.23453,7649188
17.24078,1.325986E+07
17.24705,2.28498E+07
17.25330,3.128356E+07
17.25955,3.981562E+07
17.26582,4.181286E+07
17.27207,3.387709E+07
17.27832,1.57042E+07
17.28458,6832139
17.29083,7690731
17.29708,1.198776E+07
17.30335,1.550488E+07
17.30960,1.486987E+07
17.31585,9759082
17.32212,5167079
17.32837,2365573
17.33462,1368303
17.34088,1147611
17.34713,947921
17.35338,834541
17.35965,765399
17.36590,707549
17.37215,673010
17.37842,658017
17.38467,690428
17.39092,706101
17.39718,757347
17.40343,886913
17.40968,1078403
17.41593,1214869
17.42220,1229594
17.42845,1161284
17.43470,1120888
17.44097,1305377
17.44722,1873486
17.45347,2825896
17.45973,3767285
17.46598,3945112
17.47223,3003367
17.47850,1872599
17.48475,1040382
17.49100,719699
17.49727,655411
17.50352,711220
17.50977,827898
17.51603,1074052
17.52228,1324140
17.52853,1396646
17.53480,1185551
17.54105,888420
17.54730,702752
17.55357,713501
17.55982,970300
17.56607,1668871
17.57233,3413122
17.57858,6500460
17.58483,9782719
17.59110,1.080124E+07
17.59735,7687679
17.60360,4073604
17.60987,1753221
17.61612,993413
17.62237,947273
17.62862,1045676
17.63488,1017287
17.64113,842250
17.64738,671453
17.65365,559976
17.65990,502316
17.66615,476457
17.67242,454656
17.67867,447548
17.68492,461381
17.69118,484859
17.69743,522349
17.70368,567302
17.70995,585231
17.71620,578681
17.72245,504047
17.72872,448377
17.73497,424873
17.74122,437863
17.74748,457277
17.75373,495856
17.75998,524508
17.76625,571296
17.77250,680745
17.77875,872421
17.78502,1102230
17.79127,1428895
17.79752,2244694
17.80378,3421736
17.81003,4938486
17.81628,5904883
17.82255,6007675
17.82880,4573300
17.83505,2929666
17.84132,2130666
17.84757,1283010
17.85382,1124524
17.86007,1573557
17.86633,3068487
17.87258,6390678
17.87883,1.177551E+07
17.88510,1.524124E+07
17.89135,1.300685E+07
17.89760,7965737
17.90387,3390765
17.91012,1345919
17.91637,786105
17.92263,649963
17.92888,594345
17.93513,585310
17.94140,559346
17.94765,545301
17.95390,553255
17.96017,556110
17.96642,558876
17.97267,568388
17.97893,592653
17.98518,616156
17.99143,632612
17.99770,736091
18.00395,894237
18.01020,1146622
18.01647,1298251
18.02272,1277317
18.02897,1071612
18.03523,835959
18.04148,682902
18.04773,590497
18.05400,549127
18.06025,499568
18.06650,448436
18.07275,429381
18.07902,432637
18.08527,451294
18.09152,500844
18.09778,579387
18.10403,643748
18.11028,646667
18.11655,670914
18.12280,764906
18.12905,1085820
18.13532,1946370
18.14157,3276454
18.14782,4545966
18.15408,4375881
18.16033,3178929
18.16658,1624929
18.17285,843545
18.17910,579673
18.18535,487409
18.19162,453666
18.19787,433633
18.20412,418530
18.21038,438280
18.21663,524072
18.22288,593445
18.22915,585273
18.23540,536484
18.24165,486521
18.24792,430076
18.25417,418822
18.26042,422548
18.26668,429417
18.27293,484939
18.27918,548255
18.28545,613206
18.29170,790876
18.29795,1165947
18.30420,1731134
18.31047,2275180
18.31672,2304121
18.32297,2007477
18.32923,1569830
18.33548,1050075
18.34173,648963
18.34800,450341
18.35425,414070
18.36050,421665
18.36677,429144
18.37302,430046
18.37927,438411
18.38553,500295
18.39178,584128
18.39803,622252
18.40430,616018
18.41055,589754
18.41680,589633
18.42307,610610
18.42932,550480
18.43557,470022
18.44183,394580
18.44808,353804
18.45433,348643
18.46060,330020
18.46685,332009
18.47310,333852
18.47937,328819
18.48562,320551
18.49187,300058
18.49813,279592
18.50438,282163
18.51063,279093
18.51688,290133
18.52315,294016
18.52940,301988
18.53565,302772
18.54192,312839
18.54817,325534
18.55442,333385
18.56068,362314
18.56693,367001
18.57318,336718
18.57945,311513
18.58570,302823
18.59195,318427
18.59822,350413
18.60447,457670
18.61072,645986
18.61698,887583
18.62323,1035990
18.62948,881363
18.63575,643300
18.64200,506770
18.64825,507626
18.65452,491797
18.66077,474662
18.66702,415941
18.67328,386395
18.67953,369312
18.68578,346908
18.69205,327323
18.69830,305414
18.70455,318629
18.71082,378440
18.71707,432031
18.72332,435107
18.72957,418104
18.73583,377550
18.74208,326104
18.74833,317578
18.75460,320312
18.76085,321704
18.76710,315493
18.77337,297458
18.77962,294484
18.78587,270433
18.79213,267308
18.79838,257739
18.80463,251342
18.81090,258164
18.81715,277987
18.82340,283280
18.82967,288281
18.83592,284009
18.84217,288033
18.84843,290415
18.85468,314677
18.86093,457794
18.86720,825335
18.87345,1691511
18.87970,3705539
18.88597,8510828
18.89222,1.892463E+07
18.89847,3.324666E+07
18.90473,4.467855E+07
18.91098,5.19671E+07
18.91723,5.471588E+07
18.92350,4.977209E+07
18.92975,2.914391E+07
18.93600,7865890
18.94227,1867809
18.94852,928205
18.95477,752727
18.96102,589749
18.96728,451336
18.97353,352487
18.97978,316108
18.98605,300825
18.99230,294346
18.99855,297654
19.00482,310492
19.01107,336562
19.01732,341227
19.02358,328172
19.02983,319371
19.03608,303761
19.04235,308490
19.04860,326286
19.05485,336614
19.06112,340138
19.06737,330462
19.07362,319898
19.07988,329347
19.08613,384408
19.09238,428175
19.09865,439168
19.10490,437868
19.11115,413478
19.11742,371913
19.12367,351968
19.12992,343890
19.13618,348767
19.14243,357763
19.14868,356325
19.15495,340627
19.16120,319186
19.16745,300135
19.17370,277900
19.17997,266866
19.18622,266465
19.19247,274475
19.19873,282572
19.20498,282929
19.21123,272548
19.21750,267409
19.22375,259548
19.23000,250620
19.23627,241864
19.24252,236220
19.24877,229484
19.25503,229433
19.26128,227022
19.26753,223470
19.27380,221619
19.28005,229597
19.28630,233625
19.29257,243081
19.29882,249553
19.30507,246710
19.31133,236600
19.31758,223808
19.32383,220536
19.33010,217597
19.33635,234175
19.34260,252816
19.34887,294120
19.35512,323476
19.36137,340991
19.36763,315201
19.37388,297552
19.38013,276369
19.38638,276070
19.39265,282698
19.39890,299254
19.40515,323070
19.41142,327081
19.41767,319107
19.42392,296220
19.43018,272177
19.43643,261753
19.44268,265452
19.44895,278281
19.45520,285674
19.46145,284874
19.46772,272716
19.47397,260471
19.48022,253180
19.48648,254635
19.49273,258076
19.49898,276656
19.50525,289633
19.51150,297803
19.51775,306114
19.52402,316846
19.53027,306931
19.53652,302586
19.54278,313481
19.54903,363479
19.55528,410750
19.56155,434855
19.56780,405929
19.57405,360466
19.58032,296408
19.58657,261299
19.59282,250541
19.59908,253590
19.60533,251353
19.61158,246014
19.61783,225817
19.62410,226642
19.63035,250127
19.63660,269981
19.64287,306103
19.64912,299409
19.65537,289163
19.66163,276355
19.66788,290354
19.67413,345446
19.68040,417970
19.68665,468897
19.69290,450842
19.69917,384114
19.70542,340973
19.71167,310491
19.71793,304265
19.72418,311556
19.73043,320734
19.73670,332582
19.74295,342190
19.74920,313692
19.75547,297712
19.76172,280583
19.76797,289593
19.77423,318494
19.78048,326180
19.78673,324844
19.79300,311830
19.79925,338512
19.80550,385006
19.81177,405916
19.81802,353262
19.82427,272717
19.83052,217160
19.83678,187324
19.84303,176457
19.84928,182544
19.85555,203156
19.86180,229639
19.86805,267253
19.87432,294344
19.88057,281214
19.88682,244417
19.89308,228459
19.89933,236487
19.90558,347249
19.91185,777664
19.91810,1912438
19.92435,3695569
19.93062,5127720
19.93687,4996715
19.94312,3303542
19.94938,1494301
19.95563,626566
19.96188,377946
19.96815,423114
19.97440,558371
19.98065,742539
19.98692,822935
19.99317,761176
19.99942,630418
20.00568,461748
20.01193,336780
20.01818,263759
20.02445,238622
20.03070,224129
20.03695,218952
20.04320,225271
20.04947,246926
20.05572,269049
20.06197,267710
20.06823,243311
20.07448,216467
20.08073,193824
20.08700,196473
20.09325,202710
20.09950,221601
20.10577,238260
20.11202,220467
20.11827,202687
20.12453,188073
20.13078,185561
20.13703,191079
20.14330,196209
20.14955,195682
20.15580,195260
20.16207,196632
20.16832,190141
20.17457,190059
20.18083,191280
20.18708,190226
20.19333,197765
20.19960,211292
20.20585,229850
20.21210,243797
20.21837,280155
20.22462,334161
20.23087,425263
20.23713,480482
20.24338,515974
20.24963,449346
20.25590,350817
20.26215,276461
20.26840,236098
20.27465,213356
20.28092,214833
20.28717,247906
20.29342,367152
20.29968,622125
20.30593,985178
20.31218,1204886
20.31845,1072518
20.32470,762863
20.33095,477899
20.33722,306198
20.34347,261227
20.34972,264496
20.35598,270046
20.36223,262179
20.36848,244679
20.37475,226991
20.38100,216036
20.38725,217075
20.39352,219715
20.39977,222237
20.40602,234692
20.41228,256042
20.41853,302934
20.42478,381711
20.43105,596989
20.43730,964087
20.44355,1510251
20.44982,1852918
20.45607,1682846
20.46232,1177530
20.46858,703169
20.47483,491696
20.48108,539551
20.48733,683404
20.49360,776186
20.49985,702944
20.50610,529428
20.51237,402222
20.51862,330346
20.52487,307386
20.53113,300743
20.53738,298774
20.54363,337076
20.54990,414933
20.55615,525603
20.56240,580996
20.56867,542714
20.57492,433314
20.58117,352276
20.58743,320554
20.59368,342527
20.59993,364861
20.60620,357289
20.61245,330024
20.61870,290629
20.62497,253227
20.63122,222208
20.63747,206065
20.64373,208189
20.64998,228293
20.65623,252650
20.66250,275630
20.66875,275582
20.67500,257583
20.68127,246768
20.68752,235997
20.69377,224793
20.70003,228034
20.70628,257422
20.71253,379181
20.71878,637360
20.72505,1026078
20.73130,1298391
20.73755,1219978
20.74382,915393
20.75007,592555
20.75632,471247
20.76258,515756
20.76883,740227
20.77508,951146
20.78135,1005805
20.78760,854971
20.79385,594720
20.80012,426381
20.80637,336179
20.81262,290987
20.81888,251398
20.82513,238387
20.83138,238940
20.83765,269618
20.84390,297030
20.85015,305652
20.85642,306224
20.86267,296472
20.86892,289890
20.87518,268516
20.88143,251141
20.88768,248351
20.89395,251642
20.90020,273057
20.90645,294913
20.91272,317101
20.91897,330242
20.92522,346623
20.93147,374158
20.93773,504408
20.94398,789435
20.95023,1145774
20.95650,1270440
20.96275,1112727
20.96900,835752
20.97527,609972
20.98152,494258
20.98777,421603
20.99403,357514
21.00028,358777
21.00653,476294
21.01280,714918
21.01905,907566
21.02530,904831
21.03157,762917
21.03782,554570
21.04407,418634
21.05033,373283
21.05658,352538
21.06283,327791
21.06910,308545
21.07535,314893
21.08160,344771
21.08787,361910
21.09412,358596
21.10037,323842
21.10663,273276
21.11288,251616
21.11913,259153
21.12540,269561
21.13165,265724
21.13790,250886
21.14417,233520
21.15042,232769
21.15667,227672
21.16292,230982
21.16918,245496
21.17543,259742
21.18168,265905
21.18795,262511
21.19420,254032
21.20045,245347
21.20672,244279
21.21297,248440
21.21922,252317
21.22548,257868
21.23173,249214
21.23798,259875
21.24425,298796
21.25050,331301
21.25675,334816
21.26302,311139
21.26927,279832
21.27552,290017
21.28178,347809
21.28803,404053
21.29428,408540
21.30055,384344
21.30680,318722
21.31305,271415
21.31932,244710
21.32557,241557
21.33182,255223
21.33808,260342
21.34433,254252
21.35058,241287
21.35685,236883
21.36310,266804
21.36935,318987
21.37560,374299
21.38187,394887
21.38812,352994
21.39437,291098
21.40063,242868
21.40688,238461
21.41313,268629
21.41940,325784
21.42565,392974
21.43190,459192
21.43817,461420
21.44442,429160
21.45067,376521
21.45693,376972
21.46318,436751
21.46943,534250
21.47570,526206
21.48195,469635
21.48820,392579
21.49447,359591
21.50072,372294
21.50697,398586
21.51323,386716
21.51948,346402
21.52573,274260
21.53200,235065
21.53825,215725
21.54450,215637
21.55077,208968
21.55702,208149
21.56327,199607
21.56953,215712
21.57578,237441
21.58203,254059
21.58830,269161
21.59455,283697
21.60080,308471
21.60705,316452
21.61332,287876
21.61957,243710
21.62582,202547
21.63208,180715
21.63833,173694
21.64458,163121
21.65085,160030
21.65710,158677
21.66335,159271
21.66962,167091
21.67587,178591
21.68212,194551
21.68838,209208
21.69463,210767
21.70088,193858
21.70715,181949
21.71340,164619
21.71965,159699
21.72592,158098
21.73217,162196
21.73842,162800
21.74468,167866
21.75093,175090
21.75718,183994
21.76345,195991
21.76970,199984
21.77595,201772
21.78222,215286
21.78847,247717
21.79472,279067
21.80098,293012
21.80723,293725
21.81348,273975
21.81973,249114
21.82600,227547
21.83225,223716
21.83850,221857
21.84477,246502
21.85102,270483
21.85727,300473
21.86353,334112
21.86978,364633
21.87603,366833
21.88230,322142
21.88855,263519
21.89480,228192
21.90107,218250
21.90732,238576
21.91357,257425
21.91983,261822
21.92608,252415
21.93233,223332
21.93860,204955
21.94485,195235
21.95110,192740
21.95737,181942
21.96362,167925
21.96987,171847
21.97613,178332
21.98238,186997
21.98863,210010
21.99490,219731
22.00115,229852
22.00740,222947
22.01367,212333
22.01992,207763
22.02617,199055
22.03242,203990
22.03868,228369
22.04493,246829
22.05118,261218
22.05745,280894
22.06370,313847
22.06995,336932
22.07622,346186
22.08247,326662
22.08872,310049
22.09498,285136
22.10123,266710
22.10748,255783
22.11375,238159
22.12000,240485
22.12625,247636
22.13252,254041
22.13877,257165
22.14502,246102
22.15128,229996
22.15753,219498
22.16378,215480
22.17005,222471
22.17630,230716
22.18255,231193
22.18882,237197
22.19507,244364
22.20132,241478
22.20758,229495
22.21383,207305
22.22008,202305
22.22635,203259
22.23260,207338
22.23885,217003
22.24512,243308
22.25137,299488
22.25762,389305
22.26387,478853
22.27013,507844
22.27638,471011
22.28263,384962
22.28890,335269
22.29515,305111
22.30140,288800
22.30767,278555
22.31392,259795
22.32017,247238
22.32643,247932
22.33268,256751
22.33893,255687
22.34520,257987
22.35145,309558
22.35770,474750
22.36397,900243
22.37022,1338848
22.37647,1572955
22.38273,1243733
22.38898,836943
22.39523,460471
22.40150,305387
22.40775,252527
22.41400,240680
22.42027,254376
22.42652,262581
22.43277,288491
22.43903,325011
22.44528,380698
22.45153,455313
22.45780,565892
22.46405,690378
22.47030,721456
22.47655,650836
22.48282,514958
22.48907,392968
22.49532,320501
22.50158,290365
22.50783,283410
22.51408,258237
22.52035,243748
22.52660,237017
22.53285,266077
22.53912,375615
22.54537,546067
22.55162,779178
22.55788,921288
22.56413,860266
22.57038,679354
22.57665,491998
22.58290,394266
22.58915,314473
22.59542,289208
22.60167,263338
22.60792,263655
22.61418,258368
22.62043,261310
22.62668,267177
22.63295,283064
22.63920,294147
22.64545,337530
22.65172,374156
22.65797,373275
22.66422,331088
22.67048,298742
22.67673,301087
22.68298,323578
22.68923,327732
22.69550,325114
22.70175,292155
22.70800,264710
22.71427,239419
22.72052,226213
22.72677,229485
22.73303,229643
22.73928,232784
22.74553,239510
22.75180,247294
22.75805,251915
22.76430,264222
22.77057,271727
22.77682,302112
22.78307,421205
22.78933,934011
22.79558,2541664
22.80183,6258129
22.80810,1.130553E+07
22.81435,1.767057E+07
22.82060,1.874284E+07
22.82687,1.475397E+07
22.83312,7501675
22.83937,2747896
22.84563,1055589
22.85188,574937
22.85813,427963
22.86440,394649
22.87065,363205
22.87690,337389
22.88317,314527
22.88942,298978
22.89567,284414
22.90193,278738
22.90818,281146
22.91443,273710
22.92068,280135
22.92695,283781
22.93320,286725
22.93945,290220
22.94572,294714
22.95197,294177
22.95822,282129
22.96448,273886
22.97073,276084
22.97698,306177
22.98325,363757
22.98950,396039
22.99575,403983
23.00202,377826
23.00827,325012
23.01452,278747
23.02078,251285
23.02703,238631
23.03328,230433
23.03955,238543
23.04580,242896
23.05205,243477
23.05832,253006
23.06457,302412
23.07082,416937
23.07708,606007
23.08333,757760
23.08958,789647
23.09585,696779
23.10210,488086
23.10835,349021
23.11462,270585
23.12087,241223
23.12712,226046
23.13337,222974
23.13963,214605
23.14588,212834
23.15213,207953
23.15840,207495
23.16465,200034
23.17090,195157
23.17717,197614
23.18342,200187
23.18967,207857
23.19593,214591
23.20218,214140
23.20843,219489
23.21470,216481
23.22095,211519
23.22720,213157
23.23347,200943
23.23972,205833
23.24597,206426
23.25223,213856
23.25848,223914
23.26473,222776
23.27100,218830
23.27725,206956
23.28350,208288
23.28977,209040
23.29602,224376
23.30227,267751
23.30853,346751
23.31478,477074
23.32103,590969
23.32730,632801
23.33355,528419
23.33980,386545
23.34605,300604
23.35232,256051
23.35857,239431
23.36482,230010
23.37108,221882
23.37733,212879
23.38358,214871
23.38985,214621
23.39610,220893
23.40235,222836
23.40862,219018
23.41487,215928
23.42112,216433
23.42738,212752
23.43363,219444
23.43988,237967
23.44615,278781
23.45240,326162
23.45865,385335
23.46492,441231
23.47117,448226
23.47742,457847
23.48368,509421
23.48993,575344
23.49618,607862
23.50245,581939
23.50870,591366
23.51495,669932
23.52122,796816
23.52747,836237
23.53372,721547
23.53998,555957
23.54623,406261
23.55248,327731
23.55875,309622
23.56500,329989
23.57125,381509
23.57750,463749
23.58377,564007
23.59002,631318
23.59627,652169
23.60253,629574
23.60878,581684
23.61503,525520
23.62130,438174
23.62755,361382
23.63380,332672
23.64007,339484
23.64632,370211
23.65257,374455
23.65883,353275
23.66508,315326
23.67133,273722
23.67760,254802
23.68385,252836
23.69010,264887
23.69637,287551
23.70262,296617
23.70887,293617
23.71513,308268
23.72138,380059
23.72763,541380
23.73390,661776
23.74015,703951
23.74640,623516
23.75267,466192
23.75892,349513
23.76517,289327
23.77143,259872
23.77768,255304
23.78393,263497
23.79018,262340
23.79645,265531
23.80270,273747
23.80895,291967
23.81522,312847
23.82147,346769
23.82772,374001
23.83398,372459
23.84023,340811
23.84648,298882
23.85275,284678
23.85900,273026
23.86525,268939
23.87152,273028
23.87777,284535
23.88402,331089
23.89028,390851
23.89653,446420
23.90278,474308
23.90905,433299
23.91530,380687
23.92155,339837
23.92782,317436
23.93407,302400
23.94032,300025
23.94658,310039
23.95283,368492
23.95908,625756
23.96535,1372917
23.97160,2821190
23.97785,5303624
23.98412,8873328
23.99037,1.446495E+07
23.99662,2.106833E+07
24.00288,2.684083E+07
24.00913,2.893487E+07
24.01538,2.459234E+07
24.02163,1.563558E+07
24.02790,7289775
24.03415,3045587
24.04040,1526693
24.04667,1033258
24.05292,839639
24.05917,717957
24.06543,657656
24.07168,712240
24.07793,820082
24.08420,924319
24.09045,938273
24.09670,939403
24.10297,1192380
24.10922,2179111
24.11547,3612230
24.12173,5412975
24.12798,6374447
24.13423,6247934
24.14050,4249747
24.14675,2284237
24.15300,1225770
24.15927,758020
24.16552,577577
24.17177,528587
24.17803,541515
24.18428,660115
24.19053,867222
24.19680,1209122
24.20305,1855456
24.20930,3417514
24.21557,7153607
24.22182,1.343231E+07
24.22807,2.069787E+07
24.23432,2.922708E+07
24.24058,3.603446E+07
24.24683,4.082164E+07
24.25308,4.272226E+07
24.25935,4.333932E+07
24.26560,4.346826E+07
24.27185,4.267445E+07
24.27812,4.21014E+07
24.28437,2.75786E+07
24.29062,6330459
24.29688,2812341
24.30313,2150025
24.30938,1859922
24.31565,1657459
24.32190,1534791
24.32815,1438159
24.33442,1421060
24.34067,1421079
24.34692,1427677
24.35318,1461909
24.35943,1469528
24.36568,1528587
24.37195,1601890
24.37820,1656988
24.38445,1667527
24.39072,1622483
24.39697,1523192
24.40322,1393735
24.40948,1278113
24.41573,1199172
24.42198,1147515
24.42825,1200912
24.43450,1367638
24.44075,1652539
24.44702,1954170
24.45327,2015816
24.45952,1812404
24.46577,1465938
24.47203,1109468
24.47828,912288
24.48453,829168
24.49080,771316
24.49705,730567
24.50330,692960
24.50957,674706
24.51582,648291
24.52207,636877
24.52833,629312
24.53458,606697
24.54083,592630
24.54710,565338
24.55335,555438
24.55960,537544
24.56587,532360
24.57212,531165
24.57837,560538
24.58463,598341
24.59088,638576
24.59713,639799
24.60340,589890
24.60965,526628
24.61590,466940
24.62217,417600
24.62842,389337
24.63467,377175
24.64093,361327
24.64718,352495
24.65343,341054
24.65970,332355
24.66595,332508
24.67220,331202
24.67845,330272
24.68472,348849
24.69097,370955
24.69722,389543
24.70348,383038
24.70973,374693
24.71598,385392
24.72225,378647
24.72850,353922
24.73475,326878
24.74102,302998
24.74727,284306
24.75352,272998
24.75978,271774
24.76603,278099
24.77228,285298
24.77855,293260
24.78480,301864
24.79105,299356
24.79732,284611
24.80357,271965
24.80982,248814
24.81608,233963
24.82233,228676
24.82858,227061
24.83485,219172
24.84110,213713
24.84735,207613
24.85362,202003
24.85987,201896
24.86612,207227
24.87238,221471
24.87863,242962
24.88488,273908
24.89115,342251
24.89740,397304
24.90365,402053
24.90990,368923
24.91617,321366
24.92242,299472
24.92867,290168
24.93493,304347
24.94118,300037
24.94743,318365
24.95370,360020
24.95995,414093
24.96620,428595
24.97247,396323
24.97872,328030
24.98497,278643
24.99123,245183
24.99748,228331
25.00373,223826
25.01000,215357
25.01625,211638
25.02250,218933
25.02877,221405
25.03502,237348
25.04127,244253
25.04753,246265
25.05378,240859
25.06003,228735
25.06630,218055
25.07255,216391
25.07880,212160
25.08507,211906
25.09132,215473
25.09757,219580
25.10383,227518
25.11008,230902
25.11633,222080
25.12258,211788
25.12885,210262
25.13510,212955
25.14135,211797
25.14762,204897
25.15387,195321
25.16012,185846
25.16638,183178
25.17263,189878
25.17888,212187
25.18515,245863
25.19140,280282
25.19765,311020
25.20392,304412
25.21017,272443
25.21642,227951
25.22268,203791
25.22893,185153
25.23518,185334
25.24145,182873
25.24770,177129
25.25395,180648
25.26022,177291
25.26647,174131
25.27272,174397
25.27898,194154
25.28523,228097
25.29148,297254
25.29775,377726
25.30400,437072
25.31025,428055
25.31652,367835
25.32277,293121
25.32902,241338
25.33527,215817
25.34153,205604
25.34778,198071
25.35403,190811
25.36030,190332
25.36655,195833
25.37280,198236
25.37907,203800
25.38532,212149
25.39157,232171
25.39783,294318
25.40408,422941
25.41033,700504
25.41660,963148
25.42285,944002
25.42910,750442
25.43537,550068
25.44162,421949
25.44787,356861
25.45413,320678
25.46038,301274
25.46663,278301
25.47290,263612
25.47915,262968
25.48540,275101
25.49167,308910
25.49792,402578
25.50417,486492
25.51043,547872
25.51668,546459
25.52293,489107
25.52920,435622
25.53545,425320
25.54170,509571
25.54797,618354
25.55422,642062
25.56047,564813
25.56672,432494
25.57298,328003
25.57923,262733
25.58548,235276
25.59175,215881
25.59800,219594
25.60425,223023
25.61052,229161
25.61677,232198
25.62302,233091
25.62928,229928
25.63553,219455
25.64178,208396
25.64805,203756
25.65430,192140
25.66055,187819
25.66682,183636
25.67307,181549
25.67932,184038
25.68558,185182
25.69183,185217
25.69808,184726
25.70435,181723
25.71060,179505
25.71685,175483
25.72312,166089
25.72937,169513
25.73562,171579
25.74188,166232
25.74813,167317
25.75438,167892
25.76065,167602
25.76690,175500
25.77315,177468
25.77940,174359
25.78567,168229
25.79192,170831
25.79817,165196
25.80443,160523
25.81068,160665
25.81693,154231
25.82320,155338
25.82945,153102
25.83570,150477
25.84197,153743
25.84822,153340
25.85447,155883
25.86073,160246
25.86698,162215
25.87323,161693
25.87950,155590
25.88575,151502
25.89200,152058
25.89827,149310
25.90452,156105
25.91077,153610
25.91703,145459
25.92328,145528
25.92953,154850
25.93580,151122
25.94205,155543
25.94830,155379
25.95457,161619
25.96082,151477
25.96707,152308
25.97333,160423
25.97958,169978
25.98583,174155
25.99208,177260
25.99835,177166
26.00460,171353
26.01085,158429
26.01712,156715
26.02337,159423
26.02962,164212
26.03588,163921
26.04213,164465
26.04838,169268
26.05465,173228
26.06090,169699
26.06715,171353
26.07342,166076
26.07967,163988
26.08592,160335
26.09218,156006
26.09843,150409
26.10468,149451
26.11095,150189
26.11720,150040
26.12345,147083
26.12972,146310
26.13597,143492
26.14222,144742
26.14848,146801
26.15473,139155
26.16098,146111
26.16725,144420
26.17350,146475
26.17975,151637
26.18602,153671
26.19227,151568
26.19852,145978
26.20478,147264
26.21103,145253
26.21728,147238
26.22353,144677
26.22980,147209
26.23605,143593
26.24230,143232
26.24857,146633
26.25482,144498
26.26107,143963
26.26733,141232
26.27358,140972
26.27983,144212
26.28610,140042
26.29235,143221
26.29860,145993
26.30487,148688
26.31112,148479
26.31737,150806
26.32363,149538
26.32988,145455
26.33613,148699
26.34240,147066
26.34865,151774
26.35490,158831
26.36117,173875
26.36742,213774
26.37367,278064
26.37993,387656
26.38618,469441
26.39243,465615
26.39870,395015
26.40495,301284
26.41120,219631
26.41747,186949
26.42372,179407
26.42997,168295
26.43622,158710
26.44248,159145
26.44873,159446
26.45498,163124
26.46125,162469
26.46750,161545
26.47375,163093
26.48002,160877
26.48627,162003
26.49252,166498
26.49878,168708
26.50503,162148
26.51128,160934
26.51755,162197
26.52380,168336
26.53005,177944
26.53632,187965
26.54257,193655
26.54882,194052
26.55508,180753
26.56133,163284
26.56758,161413
26.57385,157420
26.58010,162852
26.58635,159187
26.59262,160701
26.59887,156353
26.60512,164860
26.61138,172110
26.61763,174831
26.62388,188199
26.63015,185967
26.63640,177952
26.64265,173775
26.64890,194796
26.65517,246855
26.66142,398647
26.66767,670755
26.67393,943851
26.68018,1097934
26.68643,998260
26.69270,794686
26.69895,588460
26.70520,467485
26.71147,407078
26.71772,353266
26.72397,304829
26.73023,266656
26.73648,237180
26.74273,222139
26.74900,219708
26.75525,242679
26.76150,278091
26.76777,333472
26.77402,386111
26.78027,397108
26.78653,382360
26.79278,351076
26.79903,332399
26.80530,325627
26.81155,307179
26.81780,293095
26.82407,324773
26.83032,431467
26.83657,659995
26.84283,883409
26.84908,1000027
26.85533,833918
26.86160,607401
26.86785,400999
26.87410,302824
26.88035,280352
26.88662,306678
26.89287,353778
26.89912,430387
26.90538,651449
26.91163,1386530
26.91788,3040493
26.92415,6303184
26.93040,1.083199E+07
26.93665,1.566943E+07
26.94292,2.00862E+07
26.94917,1.929345E+07
26.95542,1.200978E+07
26.96168,5202729
26.96793,2385731
26.97418,1417701
26.98045,931066
26.98670,635742
26.99295,466414
26.99922,381104
27.00547,364500
27.01172,437879
27.01798,660859
27.02423,976117
27.03048,1270236
27.03675,1314418
27.04300,1084364
27.04925,746251
27.05552,526312
27.06177,419210
27.06802,379125
27.07428,351555
27.08053,317128
27.08678,299268
27.09303,270245
27.09930,255358
27.10555,244919
27.11180,240483
27.11807,242423
27.12432,254307
27.13057,296700
27.13683,359645
27.14308,416551
27.14933,426849
27.15560,379786
27.16185,317523
27.16810,285159
27.17437,262222
27.18062,264040
27.18687,268593
27.19313,260532
27.19938,247880
27.20563,249745
27.21190,245266
27.21815,241058
27.22440,241273
27.23067,249734
27.23692,234250
27.24317,240689
27.24943,246248
27.25568,248394
27.26193,251750
27.26820,250361
27.27445,242452
27.28070,233444
27.28697,230162
27.29322,229094
27.29947,225075
27.30573,225311
27.31198,225190
27.31823,223961
27.32448,220125
27.33075,221304
27.33700,218298
27.34325,222105
27.34952,218369
27.35577,228024
27.36202,227468
27.36828,237156
27.37453,230456
27.38078,226483
27.38705,229709
27.39330,232340
27.39955,236039
27.40582,255029
27.41207,262666
27.41832,284328
27.42458,272421
27.43083,261381
27.43708,239148
27.44335,229144
27.44960,225127
27.45585,218092
27.46212,211503
27.46837,200764
27.47462,208326
27.48088,200341
27.48713,216448
27.49338,217666
27.49965,208670
27.50590,206490
27.51215,204060
27.51842,201124
27.52467,204490
27.53092,213177
27.53717,208721
27.54343,208325
27.54968,210571
27.55593,203331
27.56220,204739
27.56845,203133
27.57470,197890
27.58097,206725
27.58722,200144
27.59347,207758
27.59973,203105
27.60598,203934
27.61223,203419
27.61850,202454
27.62475,207085
27.63100,199975
27.63727,214619
27.64352,211795
27.64977,207629
27.65603,212058
27.66228,202992
27.66853,210037
27.67480,208897
27.68105,207781
27.68730,213771
27.69357,209063
27.69982,220777
27.70607,218980
27.71233,216527
27.71858,224493
27.72483,226819
27.73110,242396
27.73735,228059
27.74360,227674
27.74987,223273
27.75612,228606
27.76237,226849
27.76862,230989
27.77488,232726
27.78113,223339
27.78738,223416
27.79365,220481
27.79990,216746
27.80615,219610
27.81242,211491
27.81867,217196
27.82492,211959
27.83118,211426
27.83743,224866
27.84368,241729
27.84995,300604
27.85620,401892
27.86245,597915
27.86872,836381
27.87497,1020780
27.88122,1037108
27.88748,878769
27.89373,674581
27.89998,517992
27.90625,428622
27.91250,368649
27.91875,335303
27.92502,317153
27.93127,292200
27.93752,281768
27.94378,271695
27.95003,267967
27.95628,268412
27.96255,266225
27.96880,255310
27.97505,256703
27.98130,256017
27.98757,263320
27.99382,268431
28.00007,265151
28.00633,267697
28.01258,257342
28.01883,250741
28.02510,253893
28.03135,246539
28.03760,242560
28.04387,239906
28.05012,248758
28.05637,235995
28.06263,243388
28.06888,237247
28.07513,241020
28.08140,224283
28.08765,231824
28.09390,232918
28.10017,232694
28.10642,236572
28.11267,237369
28.11893,239535
28.12518,232006
28.13143,234833
28.13770,242489
28.14395,234869
28.15020,236981
28.15647,233397
28.16272,228939
28.16897,230780
28.17523,238861
28.18148,229203
28.18773,225737
28.19398,224695
28.20025,228248
28.20650,234303
28.21275,227955
28.21902,228081
28.22527,238868
28.23152,230622
28.23778,230492
28.24403,236111
28.25028,229689
28.25655,234752
28.26280,228697
28.26905,230002
28.27532,231989
28.28157,231181
28.28782,238217
28.29408,236772
28.30033,239231
28.30658,250277
28.31285,251769
28.31910,252088
28.32535,255056
28.33162,259433
28.33787,264474
28.34412,271704
28.35038,271308
28.35663,272572
28.36288,286438
28.36915,293996
28.37540,287226
28.38165,293042
28.38792,300529
28.39417,298358
28.40042,299116
28.40668,314159
28.41293,315687
28.41918,315045
28.42543,321807
28.43170,304975
28.43795,303201
28.44420,303992
28.45047,301452
28.45672,290684
28.46297,286826
28.46923,283101
28.47548,279811
28.48173,276219
28.48800,266047
28.49425,266718
28.50050,264939
28.50677,259653
28.51302,264564
28.51927,267979
28.52553,265816
28.53178,261777
28.53803,255319
28.54430,251648
28.55055,246009
28.55680,244809
28.56307,250359
28.56932,240947
28.57557,239700
28.58183,244301
28.58808,245388
28.59433,244345
28.60060,243607
28.60685,239774
28.61310,234533
28.61937,239958
28.62562,234868
28.63187,239808
28.63812,236168
28.64438,238512
28.65063,235208
28.65688,230625
28.66315,233410
28.66940,235272
28.67565,233673
28.68192,236713
28.68817,234102
28.69442,239567
28.70068,229755
28.70693,231787
28.71318,232736
28.71945,238882
28.72570,238960
28.73195,241351
28.73822,245893
28.74447,238046
28.75072,231295
28.75698,233650
28.76323,222712
28.76948,227538
28.77575,233220
28.78200,229983
28.78825,225869
28.79452,227697
28.80077,225001
28.80702,226836
28.81328,226418
28.81953,224053
28.82578,225799
28.83205,233898
28.83830,221879
28.84455,232721
28.85080,227309
28.85707,229661
28.86332,228992
28.86957,220529
28.87583,226055
28.88208,221159
28.88833,220000
28.89460,223093
28.90085,222014
28.90710,219115
28.91337,215498
28.91962,219077
28.92587,228552
28.93213,230006
28.93838,223125
28.94463,228959
28.95090,228008
28.95715,217345
28.96340,216948
28.96967,223237
28.97592,220049
28.98217,220203
28.98843,219958
28.99468,218673
29.00093,220796
29.00720,229324
29.01345,222723
29.01970,222159
29.02597,230605
29.03222,222913
29.03847,224706
29.04473,228427
29.05098,218490
29.05723,228769
29.06350,225199
29.06975,225680
29.07600,228444
29.08225,221899
29.08852,227967
29.09477,221555
29.10102,223437
29.10728,215968
29.11353,224031
29.11978,223537
29.12605,223414
29.13230,225652
29.13855,215237
29.14482,226109
29.15107,215510
29.15732,217331
29.16358,224129
29.16983,219697
29.17608,215372
29.18235,217267
29.18860,224098
29.19485,221601
29.20112,218836
29.20737,221548
29.21362,234739
29.21988,254334
29.22613,304614
29.23238,370726
29.23865,460946
29.24490,565438
29.25115,631420
29.25742,628866
29.26367,603725
29.26992,528051
29.27618,446471
29.28243,392720
29.28868,349892
29.29493,319643
29.30120,293693
29.30745,280278
29.31370,273624
29.31997,273933
29.32622,258289
29.33247,256916
29.33873,247245
29.34498,250261
29.35123,241820
29.35750,249269
29.36375,242220
29.37000,241006
29.37627,243483
29.38252,237956
29.38877,231043
29.39503,237875
29.40128,229809
29.40753,233257
29.41380,229319
29.42005,229293
29.42630,229517
29.43257,226907
29.43882,235814
29.44507,222795
29.45133,225450
29.45758,228307
29.46383,229819
29.47010,227259
29.47635,224549
29.48260,225571
29.48887,226002
29.49512,223771
29.50137,226000
29.50763,216585
29.51388,217147
29.52013,217887
29.52638,214814
29.53265,226138
29.53890,225752
29.54515,224723
29.55142,220229
29.55767,218615
29.56392,226208
29.57018,214966
29.57643,215994
29.58268,214288
29.58895,215073
29.59520,220533
29.60145,216939
29.60772,220678
29.61397,219455
29.62022,218777
29.62648,221347
29.63273,220732
29.63898,213616
29.64525,212012
29.65150,212679
29.65775,218793
29.66402,217807
29.67027,209276
29.67652,210940
29.68278,210661
29.68903,220193
29.69528,217714
29.70155,212744
29.70780,213690
29.71405,218315
29.72032,211402
29.72657,215736
29.73282,219289
29.73907,215791
29.74533,206052
29.75158,209894
29.75783,210629
29.76410,208057
29.77035,214480
29.77660,216639
29.78287,205356
29.78912,213750
29.79537,215037
29.80163,217197
29.80788,207242
29.81413,206730
29.82040,209973
29.82665,213021
29.83290,211373
29.83917,206983
29.84542,214079
29.85167,215028
29.85793,216261
29.86418,209722
29.87043,207617
29.87670,218501
29.88295,214604
29.88920,215823
29.89547,214401
29.90172,211700
29.90797,207213
29.91423,213988
29.92048,209741
29.92673,215429
29.93300,212748
29.93925,210877
29.94550,205645
29.95177,206914
29.95802,210989
29.96427,204830
29.97052,211001
29.97678,204768
29.98303,206215
29.98928,212874
29.99555,207084
30.00180,211320
30.00805,205570
30.01432,206000
30.02057,210794
30.02682,211557
30.03308,211030
30.03933,203723
30.04558,202139
30.05185,202263
30.05810,207188
30.06435,203613
30.07062,204316
30.07687,204108
30.08312,213094
30.08938,205053
30.09563,210197
30.10188,210002
30.10815,203309
30.11440,205556
30.12065,203935
30.12692,203484
30.13317,199839
30.13942,202027
30.14568,204412
30.15193,203427
30.15818,204662
30.16445,200911
30.17070,200342
30.17695,202471
30.18320,201646
30.18947,203098
30.19572,205928
30.20197,202776
30.20823,198613
30.21448,207036
30.22073,197784
30.22700,200203
30.23325,205634
30.23950,199300
30.24577,205474
30.25202,202797
30.25827,197724
30.26453,202842
30.27078,200534
30.27703,200399
30.28330,206536
30.28955,205181
30.29580,200279
30.30207,200041
30.30832,197993
30.31457,196468
30.32083,198548
30.32708,202831
30.33333,207576
30.33960,197160
30.34585,202480
30.35210,199583
30.35837,199514
30.36462,200897
30.37087,204408
30.37713,201945
30.38338,198466
30.38963,198394
30.39590,201544
30.40215,202723
30.40840,202139
30.41465,204909
30.42092,197729
30.42717,200951
30.43342,195052
30.43968,197251
30.44593,194322
30.45218,202609
30.45845,198196
30.46470,195938
30.47095,193983
30.47722,195841
30.48347,194388
30.48972,196251
30.49598,199689
30.50223,197877
30.50848,196879
30.51475,200633
30.52100,197318
30.52725,203647
30.53352,198973
30.53977,196413
30.54602,195776
30.55228,195396
30.55853,191129
30.56478,196463
30.57105,201855
30.57730,191776
30.58355,200294
30.58982,202627
30.59607,192124
30.60232,192464
30.60858,194036
30.61483,193823
30.62108,199437
30.62733,202605
30.63360,199567
30.63985,200909
30.64610,199440
30.65237,199479
30.65862,198513
30.66487,201935
30.67113,199131
30.67738,207162
30.68363,205873
30.68990,205709
30.69615,213542
30.70240,221660
30.70867,222589
30.71492,226330
30.72117,217178
30.72743,219130
30.73368,213204
30.73993,210134
30.74620,206654
30.75245,199528
30.75870,206274
30.76497,195795
30.77122,196803
30.77747,201622
30.78373,198999
30.78998,201499
30.79623,193528
30.80250,196821
30.80875,203580
30.81500,200960
30.82127,195071
30.82752,201923
30.83377,196575
30.84002,192383
30.84628,194441
30.85253,192519
30.85878,188845
30.86505,193403
30.87130,191508
30.87755,192345
30.88382,196443
30.89007,192962
30.89632,190248
30.90258,195017
30.90883,200472
30.91508,194259
30.92135,194787
30.92760,198401
30.93385,193444
30.94012,198348
30.94637,192557
30.95262,195651
30.95888,199046
30.96513,199086
30.97138,200705
30.97765,205878
30.98390,226369
30.99015,229780
30.99642,256191
31.00267,283101
31.00892,306260
31.01518,317103
31.02143,329581
31.02768,327698
31.03395,328084
31.04020,297526
31.04645,284760
31.05272,268032
31.05897,234957
31.06522,238366
31.07147,222127
31.07773,217499
31.08398,222328
31.09023,213261
31.09650,205133
31.10275,207545
31.10900,203403
31.11527,207597
31.12152,202440
31.12777,201539
31.13403,202239
31.14028,204310
31.14653,207737
31.15280,196942
31.15905,193221
31.16530,202359
31.17157,204578
31.17782,200170
31.18407,204857
31.19033,194907
31.19658,204028
31.20283,197862
31.20910,196245
31.21535,193139
31.22160,194454
31.22787,192124
31.23412,198113
31.24037,197233
31.24663,196660
31.25288,189733
31.25913,195015
31.26540,195556
31.27165,195878
31.27790,187007
31.28415,201435
31.29042,190371
31.29667,190284
31.30292,196224
31.30918,192748
31.31543,196580
31.32168,191123
31.32795,184693
31.33420,193354
31.34045,193532
31.34672,188538
31.35297,188306
31.35922,188494
31.36548,193822
31.37173,191298
31.37798,191017
31.38425,188491
31.39050,186686
31.39675,191567
31.40302,193188
31.40927,194689
31.41552,195101
31.42178,194986
31.42803,190136
31.43428,196315
31.44055,188084
31.44680,195432
31.45305,196326
31.45932,189913
31.46557,190335
31.47182,195445
31.47808,185890
31.48433,191098
31.49058,191078
31.49683,193494
31.50310,185856
31.50935,191354
31.51560,185763
31.52187,189295
31.52812,190695
31.53437,183228
31.54063,186892
31.54688,187556
31.55313,188826
31.55940,192596
31.56565,191410
31.57190,188125
31.57817,184365
31.58442,186436
31.59067,190868
31.59693,187745
31.60318,182663
31.60943,181400
31.61570,185622
31.62195,188574
31.62820,189887
31.63447,187126
31.64072,184054
31.64697,185729
31.65323,187900
31.65948,188178
31.66573,186766
31.67200,182291
31.67825,181299
31.68450,190368
31.69077,186920
31.69702,183970
31.70327,184946
31.70953,181464
31.71578,182934
31.72203,183664
31.72828,188742
31.73455,182032
31.74080,186005
31.74705,183057
31.75332,181883
31.75957,182478
31.76582,184862
31.77208,182620
31.77833,185021
31.78458,186319
31.79085,179215
31.79710,182206
31.80335,180850
31.80962,177189
31.81587,182485
31.82212,178751
31.82838,185860
31.83463,187342
31.84088,183499
31.84715,177960
31.85340,176433
31.85965,186770
31.86592,176766
31.87217,178994
31.87842,176119
31.88468,178940
31.89093,182511
31.89718,186367
31.90345,177031
31.90970,175836
31.91595,180502
31.92222,185608
31.92847,178118
31.93472,182590
31.94097,180825
31.94723,179132
31.95348,176377
31.95973,177391
31.96600,185234
31.97225,178524
31.97850,179085
31.98477,180679
31.99102,185382
31.99727,181244
32.00353,182273
32.00978,182438
32.01603,174595
32.02230,182417
32.02855,177811
32.03480,178216
32.04107,175766
32.04732,181087
32.05357,182004
32.05983,184122
32.06608,176065
32.07233,181697
32.07860,174770
32.08485,178655
32.09110,184520
32.09737,174889
32.10362,178159
32.10987,178527
32.11613,173171
32.12238,180477
32.12863,179569
32.13490,181178
32.14115,173634
32.14740,174970
32.15367,176602
32.15992,174945
32.16617,176421
32.17242,173654
32.17868,174047
32.18493,173208
32.19118,173262
32.19745,180259
32.20370,180655
32.20995,176179
32.21622,176699
32.22247,174606
32.22872,177103
32.23498,174677
32.24123,181327
32.24748,179223
32.25375,176699
32.26000,178065
32.26625,178110
32.27252,181461
32.27877,177112
32.28502,173455
32.29128,172308
32.29753,177091
32.30378,175420
32.31005,175525
32.31630,179155
32.32255,174421
32.32882,176970
32.33507,178515
32.34132,182694
32.34758,173600
32.35383,181608
32.36008,173957
32.36635,177633
32.37260,173872
32.37885,181184
32.38510,173401
32.39137,172364
32.39762,172718
32.40387,173529
32.41013,178370
32.41638,170319
32.42263,179369
32.42890,177953
32.43515,170983
32.44140,171144
32.44767,175058
32.45392,175423
32.46017,175024
32.46643,174873
32.47268,170707
32.47893,170366
32.48520,173563
32.49145,172600
32.49770,171755
32.50397,172711
32.51022,168522
32.51647,171864
32.52273,174914
32.52898,177310
32.53523,179063
32.54150,203637
32.54775,179815
32.55400,171312
32.56027,171603
32.56652,177193
32.57277,171583
32.57903,167620
32.58528,175784
32.59153,172192
32.59780,173975
32.60405,167270
32.61030,176931
32.61655,168046
32.62282,175704
32.62907,173761
32.63532,174263
32.64158,169289
32.64783,167265
32.65408,172302
32.66035,169470
32.66660,171615
32.67285,178593
32.67912,169626
32.68537,167404
32.69162,167938
32.69788,175220
32.70413,175063
32.71038,166344
32.71665,168203
32.72290,166556
32.72915,171257
32.73542,168324
32.74167,170992
32.74792,168537
32.75418,166620
32.76043,164164
32.76668,169202
32.77295,173612
32.77920,174448
32.78545,171943
32.79172,175248
32.79797,172874
32.80422,172826
32.81048,169341
32.81673,171689
32.82298,169531
32.82923,167775
32.83550,167932
32.84175,169185
32.84800,167746
32.85427,165769
32.86052,173646
32.86677,170496
32.87303,168376
32.87928,169812
32.88553,168283
32.89180,170739
32.89805,171033
32.90430,169615
32.91057,164121
32.91682,169629
32.92307,168190
32.92933,169520
32.93558,164459
32.94183,164779
32.94810,173932
32.95435,171516
32.96060,171319
32.96687,171326
32.97312,172781
32.97937,165165
32.98563,170058
32.99188,164997
32.99813,174493
33.00440,171880
33.01065,165130
33.01690,175713
33.02317,171683
33.02942,165972
33.03567,169996
33.04193,165220
33.04818,168610
33.05443,170530
33.06068,169767
33.06695,161162
33.07320,163661
33.07945,170876
33.08572,160898
33.09197,166702
33.09822,169534
33.10448,164427
33.11073,163741
33.11698,169838
33.12325,160606
33.12950,171192
33.13575,174454
33.14202,165198
33.14827,174042
33.15452,176035
33.16078,171025
33.16703,177116
33.17328,172683
33.17955,176434
33.18580,177815
33.19205,181614
33.19832,176628
33.20457,176533
33.21082,180650
33.21708,179952
33.22333,175586
33.22958,175557
33.23585,167527
33.24210,165814
33.24835,171691
33.25462,168702
33.26087,173095
33.26712,165210
33.27337,163107
33.27963,168239
33.28588,170755
33.29213,170864
33.29840,172654
33.30465,161649
33.31090,166707
33.31717,160036
33.32342,166341
33.32967,166311
33.33593,166336
33.34218,167297
33.34843,175362
33.35470,178314
33.36095,181909
33.36720,184821
33.37347,191599
33.37972,190893
33.38597,195724
33.39223,197979
33.39848,195702
33.40473,191152
33.41100,195924
33.41725,187240
33.42350,186039
33.42977,186429
33.43602,182752
33.44227,171654
33.44853,168602
33.45478,172480
33.46103,170037
33.46730,174848
33.47355,166357
33.47980,169837
33.48605,170227
33.49232,169805
33.49857,164687
33.50482,165260
33.51108,163852
33.51733,163144
33.52358,163818
33.52985,162313
33.53610,167278
33.54235,167168
33.54862,161854
33.55487,164666
33.56112,165983
33.56738,162114
33.57363,165183
33.57988,170280
33.58615,166170
33.59240,160385
33.59865,164462
33.60492,163645
33.61117,160149
33.61742,164817
33.62368,161755
33.62993,164920
33.63618,163175
33.64245,164127
33.64870,161691
33.65495,166432
33.66122,163321
33.66747,165273
33.67372,162436
33.67998,165668
33.68623,160325
33.69248,166167
33.69875,163329
33.70500,168039
33.71125,164542
33.71750,161565
33.72377,169598
33.73002,167932
33.73627,160701
33.74253,159425
33.74878,163317
33.75503,157341
33.76130,157972
33.76755,159453
33.77380,158277
33.78007,157578
33.78632,161741
33.79257,158338
33.79883,156561
33.80508,157138
33.81133,162469
33.81760,158381
33.82385,163044
33.83010,156500
33.83637,161790
33.84262,159370
33.84887,156850
33.85513,166663
33.86138,160777
33.86763,156053
33.87390,157253
33.88015,160644
33.88640,163661
33.89267,161568
33.89892,158768
33.90517,159575
33.91143,159252
33.91768,159449
33.92393,158502
33.93018,155750
33.93645,157343
33.94270,159912
33.94895,159691
33.95522,163690
33.96147,162678
33.96772,153742
33.97398,156953
33.98023,159764
33.98648,159011
33.99275,159109
33.99900,155331
34.00525,155968
34.01152,156669
34.01777,151631
34.02402,161595
34.03028,156947
34.03653,164856
34.04278,156432
34.04905,158251
34.05530,155298
34.06155,156504
34.06782,154729
34.07407,157790
34.08032,154270
34.08658,161086
34.09283,153276
34.09908,154529
34.10535,160877
34.11160,156577
34.11785,159626
34.12412,156619
34.13037,161974
34.13662,155162
34.14287,155129
34.14913,156254
34.15538,155238
34.16163,151180
34.16790,154550
34.17415,158363
34.18040,153607
34.18667,158433
34.19292,154762
34.19917,159580
34.20543,156091
34.21168,158277
34.21793,154068
34.22420,151758
34.23045,161283
34.23670,156177
34.24297,153310
34.24922,153308
34.25547,157966
34.26173,150299
34.26798,156201
34.27423,155261
34.28050,155872
34.28675,156081
34.29300,151475
34.29927,155225
34.30552,152290
34.31177,155259
34.31803,155309
34.32428,160137
34.33053,154385
34.33680,153962
34.34305,155446
34.34930,154285
34.35557,155940
34.36182,153435
34.36807,159961
34.37432,157479
34.38058,157062
34.38683,152446
34.39308,152279
34.39935,154371
34.40560,155431
34.41185,152776
34.41812,149237
34.42437,149828
34.43062,156683
34.43688,152515
34.44313,156401
34.44938,158123
34.45565,153959
34.46190,153093
34.46815,151490
34.47442,152333
34.48067,153537
34.48692,154236
34.49318,156678
34.49943,157768
34.50568,148227
34.51195,155100
34.51820,156869
34.52445,149741
34.53072,157902
34.53697,149423
34.54322,155148
34.54948,151002
34.55573,151298
34.56198,148821
34.56825,156490
34.57450,148721
34.58075,151107
34.58700,151254
34.59327,155326
34.59952,152420
34.60577,150187
34.61203,150129
34.61828,150246
34.62453,154473
34.63080,151109
34.63705,156227
34.64330,150709
34.64957,154864
34.65582,152407
34.66207,153726
34.66833,148512
34.67458,150411
34.68083,150142
34.68710,154079
34.69335,153010
34.69960,146957
34.70587,155898
34.71212,154557
34.71837,153064
34.72463,153560
34.73088,149119
34.73713,151486
34.74340,145065
34.74965,148769
34.75590,147379
34.76217,150393
34.76842,151394
34.77467,152016
34.78093,152627
34.78718,152974
34.79343,146684
34.79970,152472
34.80595,150064
34.81220,152156
34.81845,146310
34.82472,155767
34.83097,152764
34.83722,147960
34.84348,150722
34.84973,148702
34.85598,152089
34.86225,149103
34.86850,148370
34.87475,148047
34.88102,145357
34.88727,149004
34.89352,146989
34.89978,145854
34.90603,150044
34.91228,147519
34.91855,147115
34.92480,150813
34.93105,152980
34.93732,150920
34.94357,145289
34.94982,151167
34.95608,154073
34.96233,152030
34.96858,146329
34.97485,151944
34.98110,147237
34.98735,146312
34.99362,146450
34.99987,147122
35.00612,146693
35.01238,145537
35.01863,149191
35.02488,147317
35.03113,148937
35.03740,149983
35.04365,147667
35.04990,143567
35.05617,147133
35.06242,146725
35.06867,150663
35.07493,153527
35.08118,148299
35.08743,150287
35.09370,146585
35.09995,145986
35.10620,153438
35.11247,150791
35.11872,145983
35.12497,146805
35.13123,146606
35.13748,143775
35.14373,149584
35.15000,149451
35.15625,149087
35.16250,148434
35.16877,146928
35.17502,150859
35.18127,147302
35.18753,145290
35.19378,144590
35.20003,149036
35.20630,146052
35.21255,147713
35.21880,149324
35.22507,144995
35.23132,148872
35.23757,144518
35.24383,146126
35.25008,149569
35.25633,146570
35.26258,148085
35.26885,148597
35.27510,147997
35.28135,148227
35.28762,145133
35.29387,146646
35.30012,149003
35.30638,146432
35.31263,147421
35.31888,147823
35.32515,144037
35.33140,146940
35.33765,144916
35.34392,143991
35.35017,146034
35.35642,141993
35.36268,145304
35.36893,144409
35.37518,150226
35.38145,145010
35.38770,143915
35.39395,146409
35.40022,146886
35.40647,144965
35.41272,149157
35.41898,149449
35.42523,148191
35.43148,148188
35.43775,144680
35.44400,144193
35.45025,144765
35.45652,145822
35.46277,148429
35.46902,145908
35.47527,143648
35.48153,145420
35.48778,143972
35.49403,149993
35.50030,139592
35.50655,142944
35.51280,141518
35.51907,149353
35.52532,144908
35.53157,143872
35.53783,146106
35.54408,148219
35.55033,148055
35.55660,143589
35.56285,143632
35.56910,142192
35.57537,146236
35.58162,143283
35.58787,142354
35.59413,149059
35.60038,146612
35.60663,144452
35.61290,150616
35.61915,145376
35.62540,146987
35.63167,144278
35.63792,148005
35.64417,146104
35.65043,148721
35.65668,141669
35.66293,144145
35.66920,146062
35.67545,146323
35.68170,142770
35.68797,142872
35.69422,140509
35.70047,142413
35.70672,141442
35.71298,141203
35.71923,142233
35.72548,140355
35.73175,141486
35.73800,141099
35.74425,143966
35.75052,144437
35.75677,145382
35.76302,137993
35.76928,139934
35.77553,145045
35.78178,144729
35.78805,142897
35.79430,139517
35.80055,139246
35.80682,143414
35.81307,142612
35.81932,143305
35.82558,140284
35.83183,142292
35.83808,143488
35.84435,140058
35.85060,143888
35.85685,139425
35.86312,140471
35.86937,136478
35.87562,142181
35.88188,144657
35.88813,137899
35.89438,143964
35.90065,145230
35.90690,138725
35.91315,141675
35.91940,137455
35.92567,143041
35.93192,142763
35.93817,139028
35.94443,141692
35.95068,138109
35.95693,139101
35.96320,138784
35.96945,141628
35.97570,142575
35.98197,141193
35.98822,146947
35.99447,140332
36.00073,140766
36.00698,138476
36.01323,137302
36.01950,141554
36.02575,138065
36.03200,142530
36.03827,141910
36.04452,140507
36.05077,143069
36.05703,138891
36.06328,138393
36.06953,139446
36.07580,145001
36.08205,136255
36.08830,140731
36.09457,137744
36.10082,136705
36.10707,144327
36.11333,136978
36.11958,141921
36.12583,139797
36.13208,137087
36.13835,140175
36.14460,142379
36.15085,136177
36.15712,137306
36.16337,144632
36.16962,137338
36.17588,139682
36.18213,139623
36.18838,136689
36.19465,139471
36.20090,138625
36.20715,134613
36.21342,141898
36.21967,143189
36.22592,140932
36.23218,141065
36.23843,143005
36.24468,147463
36.25095,148659
36.25720,150235
36.26345,160215
36.26972,165197
36.27597,171571
36.28222,183094
36.28848,188834
36.29473,197899
36.30098,203555
36.30725,210811
36.31350,225388
36.31975,235072
36.32602,248798
36.33227,252797
36.33852,258193
36.34478,256626
36.35103,249482
36.35728,247048
36.36353,250065
36.36980,233176
36.37605,222683
36.38230,216084
36.38857,203937
36.39482,195036
36.40107,193304
36.40733,179829
36.41358,172851
36.41983,172311
36.42610,166215
36.43235,161879
36.43860,161492
36.44487,157049
36.45112,153866
36.45737,152618
36.46363,150235
36.46988,150034
36.47613,148354
36.48240,148379
36.48865,149993
36.49490,148544
36.50117,146420
36.50742,151770
36.51367,143829
36.51993,146937
36.52618,144668
36.53243,144167
36.53870,147706
36.54495,150994
36.55120,141735
36.55747,144662
36.56372,143527
36.56997,142823
36.57622,137790
36.58248,148125
36.58873,140370
36.59498,147575
36.60125,144723
36.60750,144291
36.61375,144141
36.62002,144335
36.62627,143629
36.63252,144494
36.63878,149121
36.64503,144068
36.65128,142264
36.65755,149533
36.66380,148280
36.67005,142564
36.67632,141419
36.68257,145870
36.68882,141732
36.69508,146829
36.70133,144982
36.70758,140097
36.71385,142741
36.72010,142702
36.72635,143049
36.73262,138069
36.73887,136244
36.74512,135678
36.75138,141573
36.75763,140950
36.76388,136884
36.77015,139951
36.77640,134164
36.78265,136966
36.78890,143122
36.79517,139145
36.80142,142253
36.80767,138068
36.81393,136009
36.82018,138068
36.82643,137485
36.83270,135587
36.83895,135680
36.84520,137587
36.85147,133929
36.85772,136060
36.86397,141763
36.87023,137018
36.87648,135599
36.88273,136984
36.88900,133723
36.89525,133591
36.90150,135093
36.90777,133861
36.91402,131588
36.92027,136146
36.92653,134653
36.93278,134740
36.93903,140627
36.94530,135922
36.95155,135364
36.95780,135119
36.96407,139536
36.97032,138970
36.97657,135029
36.98283,135244
36.98908,138423
36.99533,134662
37.00160,138737
37.00785,139285
37.01410,138716
37.02035,140481
37.02662,137290
37.03287,134674
37.03912,134474
37.04538,136330
37.05163,137697
37.05788,137567
37.06415,135785
37.07040,133898
37.07665,132141
37.08292,135663
37.08917,138090
37.09542,132864
37.10168,139491
37.10793,136914
37.11418,133620
37.12045,139223
37.12670,132521
37.13295,134435
37.13922,139348
37.14547,132156
37.15172,137138
37.15798,137962
37.16423,134799
37.17048,132856
37.17675,136762
37.18300,134732
37.18925,129642
37.19552,136019
37.20177,134196
37.20802,133373
37.21428,133794
37.22053,131615
37.22678,132126
37.23303,131379
37.23930,131872
37.24555,131459
37.25180,134203
37.25807,133700
37.26432,133321
37.27057,131955
37.27683,131674
37.28308,132522
37.28933,130873
37.29560,129506
37.30185,130995
37.30810,134500
37.31437,131860
37.32062,132189
37.32687,131123
37.33313,131776
37.33938,132762
37.34563,135344
37.35190,134238
37.35815,131162
37.36440,137557
37.37067,131465
37.37692,130359
37.38317,131427
37.38943,130238
37.39568,133760
37.40193,134821
37.40820,136075
37.41445,130609
37.42070,130515
37.42697,127194
37.43322,130637
37.43947,131586
37.44573,128743
37.45198,132012
37.45823,136113
37.46448,133731
37.47075,132883
37.47700,129071
37.48325,134903
37.48952,129509
