D:\MassHunter\GCMS\1\data\metastasis_lineages_3replicates_3runs_10302020\B_plate3_run1_10302020.D Fri Oct 30 21:25:01 2020
Start of data points
5.99328,166721
5.99953,170351
6.00580,172976
6.01205,187167
6.01830,196424
6.02457,175534
6.03082,181582
6.03707,185388
6.04333,184546
6.04958,174851
6.05583,177344
6.06210,175680
6.06835,183299
6.07460,204211
6.08087,197715
6.08712,185224
6.09337,173711
6.09963,266996
6.10588,544428
6.11213,902436
6.11840,986469
6.12465,690949
6.13090,392342
6.13717,247008
6.14342,211923
6.14967,208878
6.15592,301514
6.16218,510489
6.16843,826084
6.17468,966288
6.18095,802434
6.18720,516522
6.19345,310515
6.19972,225782
6.20597,185383
6.21222,171804
6.21848,168589
6.22473,171327
6.23098,157289
6.23725,158630
6.24350,150353
6.24975,140972
6.25602,133851
6.26227,123602
6.26852,127794
6.27478,132308
6.28103,137324
6.28728,141111
6.29355,140149
6.29980,142609
6.30605,195432
6.31232,327017
6.31857,571608
6.32482,984122
6.33108,2075711
6.33733,4777541
6.34358,8538517
6.34985,1.010466E+07
6.35610,6739321
6.36235,2368353
6.36862,556180
6.37487,210728
6.38112,176317
6.38737,161014
6.39363,168232
6.39988,171715
6.40613,227245
6.41240,363847
6.41865,518272
6.42490,590868
6.43117,654097
6.43742,769938
6.44367,731425
6.44993,572482
6.45618,799770
6.46243,2033052
6.46870,5038003
6.47495,9838869
6.48120,1.535906E+07
6.48747,2.094526E+07
6.49372,2.71788E+07
6.49997,3.357052E+07
6.50623,3.893972E+07
6.51248,4.273612E+07
6.51873,4.425571E+07
6.52500,4.406634E+07
6.53125,3.437863E+07
6.53750,5452914
6.54377,688589
6.55002,550467
6.55627,572170
6.56253,628259
6.56878,802806
6.57503,1273814
6.58130,1819876
6.58755,1703103
6.59380,990939
6.60005,459432
6.60632,270759
6.61257,234903
6.61882,221754
6.62508,207767
6.63133,209564
6.63758,217828
6.64385,223399
6.65010,214871
6.65635,203123
6.66262,206346
6.66887,253796
6.67512,322605
6.68138,345416
6.68763,303748
6.69388,244555
6.70015,216002
6.70640,209596
6.71265,211812
6.71892,225523
6.72517,245323
6.73142,255152
6.73768,253693
6.74393,261089
6.75018,267108
6.75645,269818
6.76270,273803
6.76895,279774
6.77522,277366
6.78147,284687
6.78772,285247
6.79398,296373
6.80023,312423
6.80648,343385
6.81273,385190
6.81900,403768
6.82525,383500
6.83150,372079
6.83777,360252
6.84402,376459
6.85027,409394
6.85653,434205
6.86278,411215
6.86903,401632
6.87530,403165
6.88155,471556
6.88780,609249
6.89407,677768
6.90032,611623
6.90657,494546
6.91283,407933
6.91908,365843
6.92533,340380
6.93160,334710
6.93785,334003
6.94410,329435
6.95037,322329
6.95662,312655
6.96287,299211
6.96913,289723
6.97538,280966
6.98163,286132
6.98790,280268
6.99415,270694
7.00040,249600
7.00667,239919
7.01292,246255
7.01917,266004
7.02543,359942
7.03168,609800
7.03793,1288949
7.04418,2787054
7.05045,4771857
7.05670,5726672
7.06295,4359307
7.06922,2032517
7.07547,699377
7.08172,265313
7.08798,169351
7.09423,151479
7.10048,134682
7.10675,127409
7.11300,123023
7.11925,121091
7.12552,112339
7.13177,106235
7.13802,126668
7.14428,166486
7.15053,223325
7.15678,272082
7.16305,245647
7.16930,179315
7.17555,126015
7.18182,105757
7.18807,104653
7.19432,100917
7.20058,103735
7.20683,117072
7.21308,115736
7.21935,116951
7.22560,100098
7.23185,105037
7.23812,111749
7.24437,137715
7.25062,177648
7.25687,299317
7.26313,533923
7.26938,731554
7.27563,706912
7.28190,494468
7.28815,280540
7.29440,174760
7.30067,139189
7.30692,124309
7.31317,120681
7.31943,112485
7.32568,101435
7.33193,93372
7.33820,91994
7.34445,90048
7.35070,87014
7.35697,92893
7.36322,85861
7.36947,90276
7.37573,87787
7.38198,95562
7.38823,101185
7.39450,114526
7.40075,119668
7.40700,117562
7.41327,120662
7.41952,158221
7.42577,225363
7.43203,279326
7.43828,282010
7.44453,241995
7.45080,180477
7.45705,136142
7.46330,134088
7.46955,149905
7.47582,164532
7.48207,157609
7.48832,155791
7.49458,151109
7.50083,167479
7.50708,183544
7.51335,193957
7.51960,167273
7.52585,133401
7.53212,104532
7.53837,95579
7.54462,101095
7.55088,182332
7.55713,640152
7.56338,2425832
7.56965,6750869
7.57590,1.377076E+07
7.58215,2.102532E+07
7.58842,2.55771E+07
7.59467,2.28203E+07
7.60092,1.164679E+07
7.60718,3213568
7.61343,1022268
7.61968,668770
7.62595,607701
7.63220,529105
7.63845,383461
7.64472,261137
7.65097,188708
7.65722,161164
7.66348,160146
7.66973,165899
7.67598,209564
7.68225,277604
7.68850,307403
7.69475,271303
7.70100,202724
7.70727,160709
7.71352,175297
7.71977,246490
7.72603,304847
7.73228,314632
7.73853,266758
7.74480,217788
7.75105,176819
7.75730,147439
7.76357,123587
7.76982,108462
7.77607,109309
7.78233,117940
7.78858,122848
7.79483,116659
7.80110,115062
7.80735,115059
7.81360,115021
7.81987,125923
7.82612,175233
7.83237,233195
7.83863,263248
7.84488,240155
7.85113,185267
7.85740,160881
7.86365,187531
7.86990,207816
7.87617,202939
7.88242,175204
7.88867,150781
7.89493,138564
7.90118,133917
7.90743,150174
7.91368,172966
7.91995,180699
7.92620,177615
7.93245,167758
7.93872,168235
7.94497,169777
7.95122,210213
7.95748,261890
7.96373,294414
7.96998,277682
7.97625,247182
7.98250,246377
7.98875,291938
7.99502,457466
8.00127,716773
8.00752,985656
8.01378,1305203
8.02003,1773232
8.02628,2021958
8.03255,1621191
8.03880,1040347
8.04505,704299
8.05132,714611
8.05757,792878
8.06382,735734
8.07008,509842
8.07633,309484
8.08258,227299
8.08885,263874
8.09510,343339
8.10135,410795
8.10762,436884
8.11387,527159
8.12012,673911
8.12638,697578
8.13263,524737
8.13888,305139
8.14513,194570
8.15140,148863
8.15765,133076
8.16390,126039
8.17017,123660
8.17642,116095
8.18267,108249
8.18893,103668
8.19518,100104
8.20143,100089
8.20770,95381
8.21395,99948
8.22020,114975
8.22647,135575
8.23272,181905
8.23897,234488
8.24523,244852
8.25148,211262
8.25773,171698
8.26400,151644
8.27025,139386
8.27650,142512
8.28277,159493
8.28902,172091
8.29527,179310
8.30153,165500
8.30778,131975
8.31403,105704
8.32030,88788
8.32655,84363
8.33280,85367
8.33907,87812
8.34532,91266
8.35157,91557
8.35782,97779
8.36408,96491
8.37033,99421
8.37658,90951
8.38285,89345
8.38910,89145
8.39535,107495
8.40162,154277
8.40787,253566
8.41412,342634
8.42038,342359
8.42663,245375
8.43288,158993
8.43915,125705
8.44540,125605
8.45165,138265
8.45792,140406
8.46417,131749
8.47042,120636
8.47668,108950
8.48293,106519
8.48918,108246
8.49545,109413
8.50170,118546
8.50795,124696
8.51422,128175
8.52047,120778
8.52672,106008
8.53298,92150
8.53923,87742
8.54548,89409
8.55175,90439
8.55800,119308
8.56425,183943
8.57052,318577
8.57677,496049
8.58302,722567
8.58927,1040990
8.59553,1308131
8.60178,1292568
8.60803,1334335
8.61430,2486522
8.62055,5809875
8.62680,1.082793E+07
8.63307,1.406581E+07
8.63932,1.226337E+07
8.64557,6516581
8.65183,2039685
8.65808,501737
8.66433,215091
8.67060,177910
8.67685,178143
8.68310,175005
8.68937,171085
8.69562,181019
8.70187,181472
8.70813,184799
8.71438,195371
8.72063,192995
8.72690,180647
8.73315,149311
8.73940,142102
8.74567,148409
8.75192,162920
8.75817,155342
8.76443,124962
8.77068,98998
8.77693,89504
8.78320,90819
8.78945,92273
8.79570,87334
8.80195,82129
8.80822,82420
8.81447,85765
8.82072,85013
8.82698,117666
8.83323,253283
8.83948,721821
8.84575,1897579
8.85200,4049219
8.85825,6502803
8.86452,7872479
8.87077,7510895
8.87702,5964964
8.88328,5070358
8.88953,4671230
8.89578,3433961
8.90205,1431938
8.90830,493902
8.91455,237933
8.92082,159601
8.92707,129926
8.93332,122045
8.93958,115794
8.94583,115064
8.95208,121307
8.95835,150682
8.96460,191009
8.97085,225397
8.97712,244132
8.98337,257084
8.98962,279277
8.99588,348921
9.00213,480263
9.00838,640201
9.01465,711635
9.02090,625298
9.02715,441718
9.03340,360558
9.03967,529262
9.04592,841368
9.05217,982764
9.05843,761529
9.06468,420875
9.07093,243913
9.07720,162683
9.08345,145963
9.08970,140628
9.09597,150960
9.10222,160887
9.10847,148834
9.11473,136861
9.12098,122227
9.12723,114877
9.13350,131198
9.13975,161513
9.14600,182250
9.15227,181339
9.15852,198555
9.16477,238460
9.17103,273332
9.17728,273378
9.18353,283947
9.18980,339330
9.19605,386863
9.20230,353945
9.20857,261807
9.21482,166233
9.22107,124201
9.22733,107871
9.23358,117279
9.23983,152206
9.24608,212724
9.25235,249244
9.25860,227059
9.26485,175490
9.27112,120969
9.27737,101808
9.28362,93919
9.28988,103676
9.29613,136045
9.30238,181810
9.30865,242276
9.31490,286133
9.32115,321687
9.32742,340592
9.33367,359393
9.33992,478638
9.34618,736246
9.35243,1017511
9.35868,993649
9.36495,706937
9.37120,424436
9.37745,523367
9.38372,1693366
9.38997,4978439
9.39622,1.016118E+07
9.40248,1.383148E+07
9.40873,1.294472E+07
9.41498,7570933
9.42125,2692135
9.42750,857579
9.43375,1007783
9.44002,3245379
9.44627,8943740
9.45252,1.747408E+07
9.45877,2.403125E+07
9.46503,2.293316E+07
9.47128,1.442284E+07
9.47753,5429143
9.48380,1527129
9.49005,490325
9.49630,253881
9.50257,181650
9.50882,158579
9.51507,156216
9.52133,153500
9.52758,155408
9.53383,145622
9.54010,148503
9.54635,146923
9.55260,143306
9.55887,136621
9.56512,143767
9.57137,160893
9.57763,176072
9.58388,175239
9.59013,161269
9.59640,152033
9.60265,151190
9.60890,173414
9.61517,199052
9.62142,207275
9.62767,180959
9.63393,146666
9.64018,127043
9.64643,118040
9.65270,122648
9.65895,122630
9.66520,112338
9.67147,127562
9.67772,277837
9.68397,1073136
9.69022,3537971
9.69648,8081657
9.70273,1.248214E+07
9.70898,1.315678E+07
9.71525,8933904
9.72150,3590259
9.72775,1660806
9.73402,2035877
9.74027,2856759
9.74652,2858895
9.75278,1857690
9.75903,854771
9.76528,340043
9.77155,186994
9.77780,153571
9.78405,138443
9.79032,120187
9.79657,110019
9.80282,103424
9.80908,102537
9.81533,98244
9.82158,99740
9.82785,99369
9.83410,109882
9.84035,129394
9.84662,171336
9.85287,317949
9.85912,938440
9.86538,2894549
9.87163,6679421
9.87788,1.068825E+07
9.88415,1.168916E+07
9.89040,8335100
9.89665,3772029
9.90290,1471396
9.90917,1230754
9.91542,1449201
9.92167,1205734
9.92793,688744
9.93418,315683
9.94043,171388
9.94670,154539
9.95295,165338
9.95920,220811
9.96547,378943
9.97172,630909
9.97797,860917
9.98423,931826
9.99048,800413
9.99673,640477
10.00300,466503
10.00925,330126
10.01550,242105
10.02177,204679
10.02802,181684
10.03427,152936
10.04053,142135
10.04678,143445
10.05303,137143
10.05930,132717
10.06555,119761
10.07180,111290
10.07807,106600
10.08432,112728
10.09057,126434
10.09683,146734
10.10308,162660
10.10933,159764
10.11558,158341
10.12185,150438
10.12810,132499
10.13435,120256
10.14062,104887
10.14687,100125
10.15312,102658
10.15938,103050
10.16563,105441
10.17188,102022
10.17815,111706
10.18440,122721
10.19065,130036
10.19692,124836
10.20317,117969
10.20942,108330
10.21568,123897
10.22193,197411
10.22818,338265
10.23445,495007
10.24070,560855
10.24695,514566
10.25322,412932
10.25947,295641
10.26572,229001
10.27198,200197
10.27823,170430
10.28448,165332
10.29075,207990
10.29700,265760
10.30325,268926
10.30952,224462
10.31577,162374
10.32202,142270
10.32828,157784
10.33453,202593
10.34078,253483
10.34703,262352
10.35330,206314
10.35955,160125
10.36580,139883
10.37207,135019
10.37832,119829
10.38457,112134
10.39083,100670
10.39708,95176
10.40333,90320
10.40960,82987
10.41585,84579
10.42210,91260
10.42837,107229
10.43462,113624
10.44087,113547
10.44713,113658
10.45338,120908
10.45963,128595
10.46590,128582
10.47215,124123
10.47840,141518
10.48467,185011
10.49092,238914
10.49717,247971
10.50343,201105
10.50968,154642
10.51593,118183
10.52220,105013
10.52845,110939
10.53470,146048
10.54097,187402
10.54722,195860
10.55347,185604
10.55972,160173
10.56598,144571
10.57223,150558
10.57848,165426
10.58475,186316
10.59100,183689
10.59725,189383
10.60352,326725
10.60977,1081469
10.61602,3210825
10.62228,6752256
10.62853,1.07252E+07
10.63478,1.115275E+07
10.64105,7848117
10.64730,3482716
10.65355,1073940
10.65982,316353
10.66607,169295
10.67232,154723
10.67858,165009
10.68483,169720
10.69108,153524
10.69735,133102
10.70360,112876
10.70985,105203
10.71612,106438
10.72237,110409
10.72862,124830
10.73488,135164
10.74113,144524
10.74738,142606
10.75365,135555
10.75990,131031
10.76615,129609
10.77242,135856
10.77867,143609
10.78492,141294
10.79117,138899
10.79743,135245
10.80368,136828
10.80993,172037
10.81620,260364
10.82245,338902
10.82870,356911
10.83497,274423
10.84122,186649
10.84747,141093
10.85373,127659
10.85998,135143
10.86623,142824
10.87250,142593
10.87875,143994
10.88500,142337
10.89127,138682
10.89752,149737
10.90377,177000
10.91003,196187
10.91628,188929
10.92253,174253
10.92880,157629
10.93505,149237
10.94130,134405
10.94757,122457
10.95382,114673
10.96007,140015
10.96633,333479
10.97258,1084024
10.97883,3369914
10.98510,7866943
10.99135,1.348387E+07
10.99760,1.7874E+07
11.00385,1.766127E+07
11.01012,1.105877E+07
11.01637,4143755
11.02262,1042416
11.02888,290539
11.03513,208677
11.04138,220162
11.04765,230735
11.05390,249437
11.06015,282566
11.06642,293753
11.07267,268209
11.07892,203891
11.08518,152175
11.09143,128134
11.09768,133773
11.10395,147542
11.11020,152287
11.11645,158977
11.12272,162753
11.12897,173588
11.13522,179240
11.14148,179350
11.14773,182297
11.15398,208424
11.16025,286983
11.16650,422227
11.17275,543205
11.17902,519385
11.18527,380860
11.19152,245614
11.19778,166607
11.20403,147723
11.21028,167045
11.21655,197913
11.22280,217174
11.22905,214050
11.23530,198115
11.24157,174584
11.24782,175133
11.25407,197822
11.26033,211950
11.26658,205308
11.27283,202048
11.27910,215077
11.28535,234855
11.29160,242731
11.29787,214263
11.30412,166157
11.31037,147194
11.31663,171392
11.32288,256412
11.32913,409861
11.33540,531704
11.34165,501460
11.34790,352639
11.35417,202594
11.36042,128805
11.36667,115444
11.37293,118098
11.37918,117858
11.38543,112826
11.39170,110493
11.39795,112031
11.40420,118878
11.41047,123321
11.41672,124152
11.42297,123784
11.42923,123052
11.43548,144289
11.44173,220313
11.44798,346981
11.45425,489448
11.46050,537452
11.46675,431463
11.47302,280451
11.47927,186356
11.48552,162357
11.49178,155550
11.49803,139985
11.50428,129413
11.51055,126406
11.51680,123989
11.52305,116257
11.52932,117934
11.53557,112294
11.54182,116695
11.54808,117149
11.55433,119867
11.56058,111240
11.56685,101731
11.57310,95432
11.57935,101826
11.58562,103396
11.59187,113581
11.59812,116719
11.60438,119161
11.61063,117829
11.61688,118080
11.62315,117722
11.62940,122992
11.63565,116064
11.64192,119818
11.64817,134669
11.65442,149872
11.66068,165071
11.66693,167494
11.67318,157222
11.67943,141152
11.68570,127375
11.69195,122811
11.69820,133565
11.70447,152051
11.71072,192063
11.71697,245231
11.72323,282350
11.72948,269758
11.73573,232955
11.74200,188532
11.74825,159253
11.75450,137573
11.76077,129716
11.76702,140606
11.77327,164727
11.77953,178342
11.78578,188760
11.79203,192502
11.79830,184111
11.80455,190837
11.81080,180508
11.81707,175278
11.82332,171702
11.82957,211785
11.83583,340132
11.84208,509929
11.84833,616585
11.85460,538997
11.86085,380427
11.86710,246223
11.87337,181644
11.87962,175175
11.88587,221479
11.89212,319661
11.89838,404707
11.90463,413660
11.91088,362756
11.91715,274755
11.92340,211445
11.92965,187155
11.93592,199126
11.94217,305360
11.94842,636146
11.95468,1448473
11.96093,3013262
11.96718,4596123
11.97345,5312042
11.97970,4224587
11.98595,2264357
11.99222,870123
11.99847,384075
12.00472,298055
12.01098,300604
12.01723,298136
12.02348,285692
12.02975,286151
12.03600,322792
12.04225,421709
12.04852,593474
12.05477,799066
12.06102,924861
12.06728,879007
12.07353,662329
12.07978,463686
12.08605,353039
12.09230,337482
12.09855,354142
12.10480,346897
12.11107,315890
12.11732,261780
12.12357,219201
12.12983,190369
12.13608,187473
12.14233,182447
12.14860,166362
12.15485,162659
12.16110,158211
12.16737,160287
12.17362,164340
12.17987,165402
12.18613,174938
12.19238,202343
12.19863,253858
12.20490,325192
12.21115,412980
12.21740,487970
12.22367,504672
12.22992,449704
12.23617,381779
12.24243,363153
12.24868,420153
12.25493,630003
12.26120,964470
12.26745,1336147
12.27370,1635336
12.27997,1668468
12.28622,1404902
12.29247,889970
12.29873,484299
12.30498,264136
12.31123,178122
12.31750,147221
12.32375,128986
12.33000,132973
12.33625,138844
12.34252,158228
12.34877,188304
12.35502,217151
12.36128,221969
12.36753,218758
12.37378,210179
12.38005,219599
12.38630,256707
12.39255,316192
12.39882,336002
12.40507,299994
12.41132,238232
12.41758,199194
12.42383,193709
12.43008,206878
12.43635,236928
12.44260,261363
12.44885,259281
12.45512,233787
12.46137,202389
12.46762,204655
12.47388,268882
12.48013,463665
12.48638,878206
12.49265,1545568
12.49890,2194805
12.50515,2284940
12.51142,1712809
12.51767,910329
12.52392,406991
12.53018,225030
12.53643,196712
12.54268,234042
12.54893,274565
12.55520,287570
12.56145,257778
12.56770,240616
12.57397,323196
12.58022,554868
12.58647,1021237
12.59273,1562040
12.59898,1902360
12.60523,1794984
12.61150,1597085
12.61775,1769181
12.62400,2458003
12.63027,3535572
12.63652,4838240
12.64277,6557611
12.64903,8820406
12.65528,1.217793E+07
12.66153,1.684511E+07
12.66780,2.15474E+07
12.67405,2.566932E+07
12.68030,2.621111E+07
12.68657,2.287612E+07
12.69282,1.31786E+07
12.69907,3726841
12.70533,841067
12.71158,448558
12.71783,501267
12.72410,602338
12.73035,661325
12.73660,687769
12.74287,737456
12.74912,754319
12.75537,680719
12.76162,559490
12.76788,439687
12.77413,358612
12.78038,304565
12.78665,286644
12.79290,282311
12.79915,271474
12.80542,257379
12.81167,230921
12.81792,220217
12.82418,217317
12.83043,224378
12.83668,232507
12.84295,224536
12.84920,215028
12.85545,207790
12.86172,217738
12.86797,214100
12.87422,230136
12.88048,238452
12.88673,309536
12.89298,461213
12.89925,662379
12.90550,763883
12.91175,684888
12.91802,500014
12.92427,375419
12.93052,283576
12.93678,230663
12.94303,197091
12.94928,174862
12.95555,165455
12.96180,162306
12.96805,155950
12.97432,151244
12.98057,153004
12.98682,157850
12.99307,168618
12.99933,178454
13.00558,199395
13.01183,220821
13.01810,250201
13.02435,301381
13.03060,408414
13.03687,539098
13.04312,661625
13.04937,593234
13.05563,427953
13.06188,327848
13.06813,391718
13.07440,719888
13.08065,1427920
13.08690,2493934
13.09317,3261567
13.09942,3089589
13.10567,1950125
13.11193,966481
13.11818,528566
13.12443,351197
13.13070,287002
13.13695,266765
13.14320,259088
13.14947,260414
13.15572,245917
13.16197,224071
13.16823,210616
13.17448,194292
13.18073,177284
13.18700,165201
13.19325,152291
13.19950,144700
13.20575,146632
13.21202,153084
13.21827,156833
13.22452,165323
13.23078,183738
13.23703,205733
13.24328,226147
13.24955,233215
13.25580,224749
13.26205,242495
13.26832,253450
13.27457,257880
13.28082,242036
13.28708,229894
13.29333,251126
13.29958,315340
13.30585,448311
13.31210,591431
13.31835,668522
13.32462,572435
13.33087,385112
13.33712,251726
13.34338,210946
13.34963,221621
13.35588,234246
13.36215,238265
13.36840,220740
13.37465,194267
13.38092,179995
13.38717,166457
13.39342,154484
13.39968,150948
13.40593,156638
13.41218,162403
13.41845,171581
13.42470,182008
13.43095,218554
13.43720,257565
13.44347,292987
13.44972,289769
13.45597,259671
13.46223,223380
13.46848,193008
13.47473,178528
13.48100,176767
13.48725,178011
13.49350,184482
13.49977,185646
13.50602,182477
13.51227,186164
13.51853,195724
13.52478,209412
13.53103,224455
13.53730,247086
13.54355,290308
13.54980,395588
13.55607,557985
13.56232,703335
13.56857,707432
13.57483,549451
13.58108,396944
13.58733,346979
13.59360,406351
13.59985,550697
13.60610,740587
13.61237,843940
13.61862,775686
13.62487,605952
13.63113,460795
13.63738,352333
13.64363,297158
13.64988,257774
13.65615,244261
13.66240,247756
13.66865,241666
13.67492,234707
13.68117,244353
13.68742,264284
13.69368,284686
13.69993,303989
13.70618,283581
13.71245,257780
13.71870,234828
13.72495,215185
13.73122,215202
13.73747,224565
13.74372,226983
13.74998,260292
13.75623,372732
13.76248,624676
13.76875,1011610
13.77500,1168994
13.78125,968044
13.78752,637485
13.79377,419129
13.80002,459216
13.80628,832210
13.81253,1662799
13.81878,3211254
13.82505,5891126
13.83130,1.000886E+07
13.83755,1.481451E+07
13.84382,1.749203E+07
13.85007,1.510009E+07
13.85632,7668771
13.86258,2241346
13.86883,571789
13.87508,273088
13.88133,276504
13.88760,432946
13.89385,843989
13.90010,1682612
13.90637,3324483
13.91262,5671833
13.91887,7969555
13.92513,8501479
13.93138,6223513
13.93763,2798962
13.94390,897173
13.95015,297286
13.95640,175384
13.96267,163359
13.96892,161734
13.97517,163946
13.98143,158612
13.98768,164773
13.99393,170807
14.00020,175993
14.00645,195608
14.01270,226010
14.01897,249140
14.02522,249178
14.03147,209934
14.03773,163132
14.04398,136789
14.05023,132959
14.05650,139949
14.06275,149330
14.06900,168274
14.07527,183010
14.08152,188193
14.08777,176652
14.09402,155970
14.10028,140117
14.10653,128476
14.11278,121007
14.11905,125931
14.12530,134420
14.13155,140321
14.13782,136181
14.14407,135765
14.15032,123781
14.15658,129537
14.16283,131800
14.16908,130781
14.17535,123816
14.18160,112839
14.18785,109566
14.19412,114960
14.20037,115427
14.20662,120170
14.21288,130746
14.21913,148088
14.22538,176295
14.23165,214184
14.23790,231039
14.24415,224034
14.25042,189584
14.25667,165027
14.26292,184171
14.26918,255179
14.27543,408789
14.28168,572931
14.28795,582624
14.29420,439294
14.30045,291515
14.30672,220443
14.31297,190706
14.31922,205644
14.32547,260337
14.33173,326798
14.33798,333995
14.34423,299689
14.35050,230374
14.35675,178623
14.36300,156901
14.36927,155054
14.37552,157417
14.38177,165329
14.38803,178162
14.39428,212863
14.40053,287376
14.40680,501469
14.41305,1046407
14.41930,2240037
14.42557,3633154
14.43182,4179877
14.43807,3477504
14.44433,2225049
14.45058,1316326
14.45683,932295
14.46310,852452
14.46935,843560
14.47560,923383
14.48187,1022698
14.48812,1030161
14.49437,870456
14.50063,605447
14.50688,386265
14.51313,246708
14.51940,196796
14.52565,193996
14.53190,201129
14.53815,201279
14.54442,194697
14.55067,191349
14.55692,189501
14.56318,202197
14.56943,202791
14.57568,203401
14.58195,211521
14.58820,199924
14.59445,179128
14.60072,170810
14.60697,175464
14.61322,181117
14.61948,190929
14.62573,194103
14.63198,190189
14.63825,209501
14.64450,273496
14.65075,367925
14.65702,433920
14.66327,404687
14.66952,335773
14.67578,273781
14.68203,246795
14.68828,248852
14.69455,280067
14.70080,327873
14.70705,399473
14.71332,429112
14.71957,461828
14.72582,572656
14.73208,856716
14.73833,1355570
14.74458,1806829
14.75083,2000656
14.75710,2028808
14.76335,2051968
14.76960,1944931
14.77587,1508437
14.78212,860085
14.78837,440902
14.79463,347287
14.80088,571382
14.80713,1121480
14.81340,1931624
14.81965,2339649
14.82590,1802506
14.83217,1056802
14.83842,465696
14.84467,226857
14.85093,173978
14.85718,180189
14.86343,217001
14.86970,265685
14.87595,287428
14.88220,264903
14.88847,233526
14.89472,201943
14.90097,186919
14.90723,202373
14.91348,265095
14.91973,380547
14.92600,483770
14.93225,524483
14.93850,501944
14.94477,418478
14.95102,352313
14.95727,332508
14.96353,395218
14.96978,646038
14.97603,1180099
14.98228,1838206
14.98855,2161620
14.99480,1725802
15.00105,996706
15.00732,501503
15.01357,291878
15.01982,223820
15.02608,206323
15.03233,198844
15.03858,195239
15.04485,216341
15.05110,236427
15.05735,256228
15.06362,262282
15.06987,257767
15.07612,247791
15.08238,237282
15.08863,232323
15.09488,255192
15.10115,292450
15.10740,324692
15.11365,352494
15.11992,406655
15.12617,487515
15.13242,607360
15.13868,729176
15.14493,860682
15.15118,932522
15.15745,992311
15.16370,1324376
15.16995,2306870
15.17622,3894423
15.18247,4626041
15.18872,4028392
15.19497,2376888
15.20123,1048656
15.20748,480995
15.21373,295066
15.22000,214581
15.22625,170791
15.23250,156620
15.23877,149255
15.24502,159076
15.25127,168903
15.25753,182860
15.26378,192352
15.27003,185616
15.27630,177445
15.28255,159966
15.28880,155779
15.29507,152660
15.30132,161002
15.30757,163697
15.31383,173401
15.32008,205394
15.32633,247342
15.33260,282672
15.33885,274656
15.34510,228888
15.35137,203290
15.35762,208980
15.36387,247622
15.37013,277587
15.37638,280553
15.38263,242980
15.38890,191706
15.39515,163072
15.40140,148809
15.40765,140829
15.41392,136630
15.42017,148664
15.42642,178428
15.43268,244551
15.43893,312362
15.44518,388829
15.45145,499597
15.45770,597722
15.46395,634106
15.47022,554678
15.47647,430138
15.48272,296303
15.48898,221122
15.49523,179129
15.50148,188547
15.50775,234021
15.51400,343121
15.52025,650068
15.52652,1471111
15.53277,3011400
15.53902,5003971
15.54528,6953525
15.55153,8944250
15.55778,1.207372E+07
15.56405,1.521659E+07
15.57030,1.581989E+07
15.57655,1.012809E+07
15.58282,3457769
15.58907,915489
15.59532,426298
15.60158,343522
15.60783,320246
15.61408,325063
15.62035,326141
15.62660,317657
15.63285,291938
15.63910,285588
15.64537,269715
15.65162,248598
15.65787,217896
15.66413,202276
15.67038,195420
15.67663,202244
15.68290,223122
15.68915,223988
15.69540,226214
15.70167,217011
15.70792,212468
15.71417,203337
15.72043,178569
15.72668,171211
15.73293,170372
15.73920,174664
15.74545,185899
15.75170,193359
15.75797,196549
15.76422,182031
15.77047,163556
15.77673,138729
15.78298,123886
15.78923,127072
15.79550,128621
15.80175,130172
15.80800,137454
15.81427,134144
15.82052,138374
15.82677,150398
15.83303,180975
15.83928,245263
15.84553,348977
15.85178,458152
15.85805,491257
15.86430,399007
15.87055,263950
15.87682,196703
15.88307,171487
15.88932,179383
15.89558,184048
15.90183,165885
15.90808,158054
15.91435,144301
15.92060,139157
15.92685,136254
15.93312,135428
15.93937,134256
15.94562,130471
15.95188,132506
15.95813,131136
15.96438,144602
15.97065,159258
15.97690,171592
15.98315,155200
15.98942,132071
15.99567,119831
16.00192,115835
16.00818,130640
16.01443,180761
16.02068,262872
16.02695,359618
16.03320,448653
16.03945,526530
16.04572,686167
16.05197,906560
16.05822,1112684
16.06448,1035706
16.07073,767792
16.07698,563206
16.08323,614050
16.08950,789611
16.09575,930010
16.10200,937076
16.10827,908196
16.11452,1048296
16.12077,1505873
16.12703,2182633
16.13328,2617129
16.13953,2356534
16.14580,1550026
16.15205,783460
16.15830,390797
16.16457,264430
16.17082,244200
16.17707,235109
16.18333,237976
16.18958,240697
16.19583,284579
16.20210,330933
16.20835,345579
16.21460,306337
16.22087,308486
16.22712,498500
16.23337,1038881
16.23963,1776195
16.24588,2309624
16.25213,1991650
16.25840,1245030
16.26465,597728
16.27090,311012
16.27717,207506
16.28342,183639
16.28967,188354
16.29592,256342
16.30218,424404
16.30843,764553
16.31468,1042659
16.32095,1064933
16.32720,769729
16.33345,432339
16.33972,256970
16.34597,193427
16.35222,183194
16.35848,176224
16.36473,186551
16.37098,170879
16.37725,161824
16.38350,154403
16.38975,145247
16.39602,143105
16.40227,139524
16.40852,146600
16.41478,148642
16.42103,150962
16.42728,161407
16.43355,229385
16.43980,412292
16.44605,784901
16.45232,1222136
16.45857,1402855
16.46482,1211988
16.47108,820160
16.47733,584201
16.48358,438550
16.48985,351449
16.49610,276534
16.50235,253543
16.50862,265345
16.51487,330583
16.52112,442691
16.52737,604232
16.53363,678285
16.53988,618701
16.54613,520498
16.55240,422458
16.55865,367381
16.56490,333089
16.57117,293661
16.57742,279047
16.58367,265907
16.58993,271425
16.59618,277153
16.60243,279552
16.60870,273356
16.61495,264916
16.62120,276776
16.62747,288032
16.63372,304204
16.63997,320286
16.64623,364770
16.65248,402505
16.65873,413471
16.66500,392142
16.67125,330444
16.67750,298815
16.68377,306824
16.69002,312252
16.69627,324434
16.70253,306688
16.70878,269046
16.71503,237497
16.72130,221268
16.72755,219463
16.73380,228489
16.74005,229235
16.74632,237207
16.75257,244211
16.75882,259880
16.76508,277160
16.77133,357679
16.77758,506284
16.78385,730043
16.79010,985240
16.79635,1477154
16.80262,2458960
16.80887,3887686
16.81512,5100728
16.82138,5951316
16.82763,6447628
16.83388,6972472
16.84015,8273725
16.84640,9978891
16.85265,1.045265E+07
16.85892,9207889
16.86517,6614254
16.87142,4405068
16.87768,3420524
16.88393,2962447
16.89018,2646298
16.89645,2400054
16.90270,2257102
16.90895,2074399
16.91522,1932552
16.92147,1871186
16.92772,2110668
16.93398,2397340
16.94023,2616021
16.94648,2806614
16.95273,2678332
16.95900,2472358
16.96525,2205583
16.97150,1950752
16.97777,1627673
16.98402,1307414
16.99027,1062807
16.99653,969206
17.00278,1041169
17.00903,1511704
17.01530,2961390
17.02155,6176376
17.02780,1.137322E+07
17.03407,1.7323E+07
17.04032,2.331192E+07
17.04657,2.716515E+07
17.05283,3.347248E+07
17.05908,4.026026E+07
17.06533,4.577239E+07
17.07160,4.856778E+07
17.07785,4.816592E+07
17.08410,4.602596E+07
17.09037,4.351595E+07
17.09662,4.081414E+07
17.10287,3.921032E+07
17.10913,3.767813E+07
17.11538,3.747093E+07
17.12163,4.443522E+07
17.12790,1.790967E+07
17.13415,8700440
17.14040,8104318
17.14667,7012119
17.15292,6496447
17.15917,8885120
17.16543,1.55541E+07
17.17168,2.523683E+07
17.17793,3.384587E+07
17.18418,3.793488E+07
17.19045,3.12601E+07
17.19670,1.471723E+07
17.20295,4436863
17.20922,2218611
17.21547,2443405
17.22172,3308528
17.22798,4317325
17.23423,5886521
17.24048,8909242
17.24675,1.525806E+07
17.25300,2.532154E+07
17.25925,3.662633E+07
17.26552,4.462994E+07
17.27177,4.768281E+07
17.27802,4.392219E+07
17.28428,2.554725E+07
17.29053,8824098
17.29678,7461762
17.30305,1.073624E+07
17.30930,1.352712E+07
17.31555,1.289263E+07
17.32182,8086789
17.32807,3694052
17.33432,1570783
17.34058,963371
17.34683,830580
17.35308,761084
17.35935,714976
17.36560,687439
17.37185,649215
17.37812,623521
17.38437,630988
17.39062,648255
17.39687,681282
17.40313,750647
17.40938,834686
17.41563,912910
17.42190,909294
17.42815,835342
17.43440,793021
17.44067,934389
17.44692,1352868
17.45317,2230192
17.45943,3456329
17.46568,4213723
17.47193,3568037
17.47820,2292806
17.48445,1219779
17.49070,695038
17.49697,555339
17.50322,543043
17.50947,583406
17.51573,656438
17.52198,771280
17.52823,784603
17.53450,716674
17.54075,604446
17.54700,522587
17.55327,528487
17.55952,663097
17.56577,1039457
17.57203,2094225
17.57828,4313727
17.58453,7220248
17.59080,9013380
17.59705,7244866
17.60330,4092118
17.60957,1842729
17.61582,878973
17.62207,724717
17.62832,781053
17.63458,786503
17.64083,689003
17.64708,575366
17.65335,473878
17.65960,427202
17.66585,392533
17.67212,381445
17.67837,372409
17.68462,382711
17.69088,403411
17.69713,417929
17.70338,422372
17.70965,433272
17.71590,420639
17.72215,392941
17.72842,361882
17.73467,343057
17.74092,345659
17.74718,369217
17.75343,392649
17.75968,416688
17.76595,446133
17.77220,526606
17.77845,675575
17.78472,919825
17.79097,1352534
17.79722,2115346
17.80348,3415931
17.80973,4594085
17.81598,5079511
17.82225,4450068
17.82850,3226322
17.83475,2013191
17.84100,1367814
17.84727,1081158
17.85352,898258
17.85977,877937
17.86603,1401707
17.87228,2851206
17.87853,4922217
17.88480,6590746
17.89105,6221424
17.89730,4152477
17.90357,2033932
17.90982,892734
17.91607,514524
17.92233,427556
17.92858,395155
17.93483,371944
17.94110,353684
17.94735,336756
17.95360,335902
17.95987,335374
17.96612,351614
17.97237,356581
17.97863,359038
17.98488,387055
17.99113,417303
17.99740,466603
18.00365,539399
18.00990,627715
18.01617,686838
18.02242,637900
18.02867,535598
18.03493,431734
18.04118,373039
18.04743,356017
18.05368,342754
18.05995,317501
18.06620,295071
18.07245,280375
18.07872,270131
18.08497,277436
18.09122,319005
18.09748,381822
18.10373,437619
18.10998,488096
18.11625,517421
18.12250,518389
18.12875,625965
18.13502,1100052
18.14127,2192014
18.14752,3429918
18.15378,3907140
18.16003,3055470
18.16628,1666362
18.17255,757055
18.17880,411235
18.18505,308156
18.19132,275460
18.19757,257457
18.20382,253457
18.21008,259157
18.21633,282555
18.22258,307738
18.22885,325007
18.23510,310225
18.24135,287508
18.24762,269227
18.25387,266856
18.26012,276540
18.26638,295155
18.27263,325850
18.27888,375480
18.28513,442379
18.29140,602024
18.29765,971601
18.30390,1452915
18.31017,1738991
18.31642,1602068
18.32267,1136204
18.32893,732077
18.33518,458957
18.34143,307607
18.34770,245504
18.35395,226213
18.36020,227607
18.36647,234695
18.37272,244824
18.37897,252062
18.38523,282225
18.39148,334501
18.39773,368902
18.40400,372077
18.41025,339133
18.41650,319932
18.42277,299109
18.42902,284264
18.43527,266055
18.44153,248605
18.44778,242460
18.45403,228543
18.46030,216513
18.46655,210812
18.47280,221053
18.47907,218204
18.48532,207777
18.49157,202290
18.49782,195604
18.50408,195448
18.51033,196011
18.51658,201186
18.52285,204614
18.52910,205646
18.53535,209083
18.54162,213831
18.54787,223553
18.55412,233105
18.56038,241655
18.56663,236379
18.57288,230332
18.57915,219755
18.58540,208356
18.59165,202008
18.59792,202100
18.60417,216478
18.61042,243944
18.61668,282326
18.62293,304806
18.62918,287827
18.63545,258159
18.64170,245900
18.64795,252363
18.65422,244599
18.66047,227642
18.66672,218115
18.67298,229444
18.67923,234231
18.68548,226699
18.69175,210226
18.69800,205878
18.70425,215152
18.71050,247008
18.71677,287654
18.72302,302312
18.72927,287281
18.73553,248790
18.74178,216572
18.74803,201063
18.75430,195070
18.76055,191327
18.76680,185940
18.77307,181278
18.77932,182281
18.78557,181961
18.79183,172495
18.79808,179404
18.80433,177004
18.81060,183403
18.81685,192459
18.82310,198937
18.82937,193464
18.83562,189646
18.84187,187604
18.84813,185790
18.85438,186987
18.86063,201013
18.86690,269918
18.87315,457708
18.87940,1009919
18.88567,2622452
18.89192,6544360
18.89817,1.171141E+07
18.90443,1.63409E+07
18.91068,1.689649E+07
18.91693,1.238008E+07
18.92320,6584478
18.92945,2376436
18.93570,739087
18.94195,353682
18.94822,291340
18.95447,265701
18.96072,242098
18.96698,214179
18.97323,193810
18.97948,183187
18.98575,176212
18.99200,175860
18.99825,179910
19.00452,190401
19.01077,212097
19.01702,213642
19.02328,209794
19.02953,200726
19.03578,196914
19.04205,206902
19.04830,216408
19.05455,233663
19.06082,232983
19.06707,207822
19.07332,192700
19.07958,192275
19.08583,190943
19.09208,213215
19.09835,223701
19.10460,235451
19.11085,235940
19.11712,229104
19.12337,223433
19.12962,224619
19.13588,241418
19.14213,255072
19.14838,246862
19.15463,230197
19.16090,212718
19.16715,201211
19.17340,184459
19.17967,174060
19.18592,176575
19.19217,182511
19.19843,182304
19.20468,180992
19.21093,183076
19.21720,175029
19.22345,171423
19.22970,164889
19.23597,158634
19.24222,154613
19.24847,150272
19.25473,147956
19.26098,150870
19.26723,153295
19.27350,148129
19.27975,147926
19.28600,156095
19.29227,157151
19.29852,162991
19.30477,165005
19.31103,159414
19.31728,149194
19.32353,142123
19.32980,141464
19.33605,144495
19.34230,161015
19.34857,179338
19.35482,198887
19.36107,209201
19.36733,213713
19.37358,198982
19.37983,189997
19.38608,185877
19.39235,189294
19.39860,200668
19.40485,214268
19.41112,230535
19.41737,223695
19.42362,205169
19.42988,187610
19.43613,173744
19.44238,169816
19.44865,176401
19.45490,173205
19.46115,177483
19.46742,160909
19.47367,160153
19.47992,156810
19.48618,161618
19.49243,162636
19.49868,172028
19.50495,184263
19.51120,188366
19.51745,197441
19.52372,203705
19.52997,198507
19.53622,203818
19.54248,202749
19.54873,215829
19.55498,247794
19.56125,270574
19.56750,272088
19.57375,240101
19.58002,201312
19.58627,176644
19.59252,155479
19.59877,157752
19.60503,153492
19.61128,155408
19.61753,146459
19.62380,153176
19.63005,161862
19.63630,179844
19.64257,209743
19.64882,217080
19.65507,205930
19.66133,188596
19.66758,195320
19.67383,223199
19.68010,268040
19.68635,308464
19.69260,307705
19.69887,277746
19.70512,245239
19.71137,232374
19.71763,230047
19.72388,227643
19.73013,209277
19.73640,202132
19.74265,204664
19.74890,201289
19.75517,200617
19.76142,196667
19.76767,206051
19.77393,224025
19.78018,240358
19.78643,238924
19.79270,224403
19.79895,215455
19.80520,217458
19.81147,220117
19.81772,207457
19.82397,185173
19.83022,161175
19.83648,151454
19.84273,145091
19.84898,149321
19.85525,163005
19.86150,183132
19.86775,210163
19.87402,235708
19.88027,234866
19.88652,215880
19.89278,193937
19.89903,197132
19.90528,259925
19.91155,519628
19.91780,1263668
19.92405,2856234
19.93032,4557578
19.93657,5172730
19.94282,3698567
19.94908,2018422
19.95533,834815
19.96158,371738
19.96785,277976
19.97410,317140
19.98035,385538
19.98662,450338
19.99287,451399
19.99912,396266
20.00538,312240
20.01163,245849
20.01788,211651
20.02415,201234
20.03040,188603
20.03665,178615
20.04290,175468
20.04917,194286
20.05542,211390
20.06167,212326
20.06793,205499
20.07418,185812
20.08043,166208
20.08670,160852
20.09295,169419
20.09920,182951
20.10547,194996
20.11172,190407
20.11797,174221
20.12423,164972
20.13048,151466
20.13673,150657
20.14300,156634
20.14925,156175
20.15550,160589
20.16177,164738
20.16802,168161
20.17427,162158
20.18053,165102
20.18678,158152
20.19303,161376
20.19930,172988
20.20555,188535
20.21180,197066
20.21807,215849
20.22432,234874
20.23057,263792
20.23683,267089
20.24308,267189
20.24933,236862
20.25560,215440
20.26185,194042
20.26810,179757
20.27435,172601
20.28062,177002
20.28687,186836
20.29312,249654
20.29938,422496
20.30563,693564
20.31188,946220
20.31815,973129
20.32440,750239
20.33065,472542
20.33692,289739
20.34317,230825
20.34942,221735
20.35568,223039
20.36193,221317
20.36818,206072
20.37445,190400
20.38070,180702
20.38695,180901
20.39322,177172
20.39947,179617
20.40572,169688
20.41198,171102
20.41823,182520
20.42448,231044
20.43075,372603
20.43700,663718
20.44325,1146244
20.44952,1559279
20.45577,1577142
20.46202,1171689
20.46828,702196
20.47453,456767
20.48078,431684
20.48703,550455
20.49330,637695
20.49955,601644
20.50580,478649
20.51207,338597
20.51832,266523
20.52457,234942
20.53083,231348
20.53708,236860
20.54333,244850
20.54960,279897
20.55585,358793
20.56210,413163
20.56837,409378
20.57462,346230
20.58087,280694
20.58713,255816
20.59338,270580
20.59963,301131
20.60590,310122
20.61215,310801
20.61840,288232
20.62467,256152
20.63092,220942
20.63717,189336
20.64343,177217
20.64968,175339
20.65593,190805
20.66220,202720
20.66845,209719
20.67470,217111
20.68097,228373
20.68722,219693
20.69347,214617
20.69972,204129
20.70598,213250
20.71223,263040
20.71848,418467
20.72475,702096
20.73100,960519
20.73725,1022058
20.74352,863008
20.74977,593102
20.75602,409963
20.76228,393388
20.76853,521879
20.77478,726789
20.78105,826504
20.78730,732094
20.79355,522347
20.79982,383899
20.80607,295377
20.81232,259300
20.81858,230105
20.82483,206999
20.83108,200693
20.83735,213768
20.84360,229953
20.84985,240285
20.85612,238317
20.86237,231533
20.86862,221160
20.87488,210635
20.88113,207695
20.88738,207566
20.89365,217898
20.89990,225678
20.90615,243983
20.91240,244439
20.91867,251045
20.92492,257887
20.93117,285582
20.93743,372369
20.94368,578787
20.94993,884592
20.95620,1071304
20.96245,1092987
20.96870,842883
20.97497,610930
20.98122,452513
20.98747,366112
20.99373,305991
20.99998,275494
21.00623,316896
21.01250,434210
21.01875,574818
21.02500,627919
21.03127,576712
21.03752,445076
21.04377,349612
21.05003,300491
21.05628,275800
21.06253,262146
21.06880,247329
21.07505,255245
21.08130,274206
21.08757,299637
21.09382,303633
21.10007,271282
21.10633,233937
21.11258,203165
21.11883,193358
21.12510,194227
21.13135,194822
21.13760,188475
21.14385,180812
21.15012,181354
21.15637,175175
21.16262,176944
21.16888,187980
21.17513,202149
21.18138,206149
21.18765,206140
21.19390,208049
21.20015,199823
21.20642,199868
21.21267,203733
21.21892,209029
21.22518,213840
21.23143,205095
21.23768,202049
21.24395,218516
21.25020,234641
21.25645,244056
21.26272,232136
21.26897,221235
21.27522,223060
21.28148,276452
21.28773,334659
21.29398,364895
21.30025,350261
21.30650,303360
21.31275,248732
21.31902,217374
21.32527,218048
21.33152,242624
21.33778,260951
21.34403,254557
21.35028,239506
21.35653,211445
21.36280,231161
21.36905,281509
21.37530,332757
21.38157,364592
21.38782,334819
21.39407,278548
21.40033,229144
21.40658,195170
21.41283,185983
21.41910,194839
21.42535,200712
21.43160,204329
21.43787,212568
21.44412,206254
21.45037,218583
21.45663,258119
21.46288,334478
21.46913,434918
21.47540,504035
21.48165,472953
21.48790,378314
21.49417,303950
21.50042,271354
21.50667,269004
21.51293,262192
21.51918,238496
21.52543,207556
21.53170,182486
21.53795,169638
21.54420,170841
21.55047,166859
21.55672,166647
21.56297,163199
21.56922,172168
21.57548,177209
21.58173,197997
21.58798,211597
21.59425,237285
21.60050,263789
21.60675,296089
21.61302,294922
21.61927,238626
21.62552,193379
21.63178,164959
21.63803,149966
21.64428,138634
21.65055,132444
21.65680,126903
21.66305,129908
21.66932,126173
21.67557,137121
21.68182,147241
21.68808,157214
21.69433,159134
21.70058,158326
21.70685,144915
21.71310,136270
21.71935,132102
21.72562,129329
21.73187,129871
21.73812,133011
21.74438,133650
21.75063,136906
21.75688,145966
21.76315,151058
21.76940,153602
21.77565,153565
21.78192,154046
21.78817,169214
21.79442,184769
21.80067,199357
21.80693,201885
21.81318,203265
21.81943,202864
21.82570,195249
21.83195,188417
21.83820,175328
21.84447,178959
21.85072,182164
21.85697,192226
21.86323,205890
21.86948,234406
21.87573,250217
21.88200,250645
21.88825,228205
21.89450,194339
21.90077,192593
21.90702,234786
21.91327,313104
21.91953,403775
21.92578,400326
21.93203,350118
21.93830,295953
21.94455,266059
21.95080,242502
21.95707,219171
21.96332,180660
21.96957,157656
21.97583,155412
21.98208,158815
21.98833,170465
21.99460,174294
22.00085,177722
22.00710,173118
22.01335,163516
22.01962,165655
22.02587,165677
22.03212,176699
22.03838,191659
22.04463,235481
22.05088,273321
22.05715,306932
22.06340,314165
22.06965,337729
22.07592,356810
22.08217,401581
22.08842,420675
22.09468,371243
22.10093,293462
22.10718,241910
22.11345,222348
22.11970,215765
22.12595,211234
22.13222,212934
22.13847,209906
22.14472,200178
22.15098,190288
22.15723,179850
22.16348,180497
22.16975,178434
22.17600,179029
22.18225,182531
22.18852,185929
22.19477,192869
22.20102,193537
22.20728,189783
22.21353,177369
22.21978,167640
22.22605,166035
22.23230,167914
22.23855,169693
22.24480,192363
22.25107,228538
22.25732,314579
22.26357,397287
22.26983,445386
22.27608,448640
22.28233,402507
22.28860,351271
22.29485,332529
22.30110,308623
22.30737,295967
22.31362,265740
22.31987,230974
22.32613,217789
22.33238,211846
22.33863,212254
22.34490,220631
22.35115,262918
22.35740,400769
22.36367,788664
22.36992,1440795
22.37617,1739810
22.38243,1609858
22.38868,1104644
22.39493,618486
22.40120,342153
22.40745,236209
22.41370,211362
22.41997,205330
22.42622,206941
22.43247,222590
22.43873,254906
22.44498,288309
22.45123,354558
22.45748,454913
22.46375,591268
22.47000,702396
22.47625,675408
22.48252,518418
22.48877,385119
22.49502,306438
22.50128,267578
22.50753,252121
22.51378,235379
22.52005,213594
22.52630,202094
22.53255,211793
22.53882,236439
22.54507,328837
22.55132,473133
22.55758,599547
22.56383,612157
22.57008,532001
22.57635,431703
22.58260,340433
22.58885,284736
22.59512,247641
22.60137,223845
22.60762,210912
22.61388,196279
22.62013,196983
22.62638,190963
22.63265,196210
22.63890,193157
22.64515,201434
22.65142,199475
22.65767,201983
22.66392,203105
22.67018,207261
22.67643,222834
22.68268,242304
22.68893,266242
22.69520,260399
22.70145,243757
22.70770,220252
22.71397,199071
22.72022,190889
22.72647,191017
22.73273,187722
22.73898,186299
22.74523,194458
22.75150,197223
22.75775,206734
22.76400,213432
22.77027,222530
22.77652,240744
22.78277,298555
22.78903,578293
22.79528,1558190
22.80153,4275795
22.80780,9096945
22.81405,1.409313E+07
22.82030,1.795591E+07
22.82657,1.529637E+07
22.83282,9298027
22.83907,3593354
22.84533,1297886
22.85158,618773
22.85783,410904
22.86410,338548
22.87035,295146
22.87660,274672
22.88287,263383
22.88912,245740
22.89537,235767
22.90162,223742
22.90788,214052
22.91413,213840
22.92038,214227
22.92665,213455
22.93290,220760
22.93915,217699
22.94542,231372
22.95167,231573
22.95792,229297
22.96418,226606
22.97043,225569
22.97668,234297
22.98295,277085
22.98920,323031
22.99545,339531
23.00172,314013
23.00797,267951
23.01422,229420
23.02048,204763
23.02673,191457
23.03298,190994
23.03925,189731
23.04550,193340
23.05175,192012
23.05802,202460
23.06427,222757
23.07052,275887
23.07678,398107
23.08303,525644
23.08928,614746
23.09555,567020
23.10180,430151
23.10805,307846
23.11432,243056
23.12057,206745
23.12682,188031
23.13307,180028
23.13933,180149
23.14558,173578
23.15183,170148
23.15810,164523
23.16435,165398
23.17060,158401
23.17687,160255
23.18312,160342
23.18937,161395
23.19563,167307
23.20188,173749
23.20813,170456
23.21440,170840
23.22065,170521
23.22690,167575
23.23317,161841
23.23942,159607
23.24567,156717
23.25193,161687
23.25818,165638
23.26443,162383
23.27070,165898
23.27695,166734
23.28320,159216
23.28947,161081
23.29572,159258
23.30197,183301
23.30823,225260
23.31448,287809
23.32073,369800
23.32700,402216
23.33325,394185
23.33950,318161
23.34575,243740
23.35202,208864
23.35827,188286
23.36452,180598
23.37078,172198
23.37703,171525
23.38328,170477
23.38955,172891
23.39580,180828
23.40205,178237
23.40832,178763
23.41457,177070
23.42082,170731
23.42708,169709
23.43333,171645
23.43958,170388
23.44585,172825
23.45210,179099
23.45835,195637
23.46462,202614
23.47087,211087
23.47712,214912
23.48338,231060
23.48963,256653
23.49588,270137
23.50215,281911
23.50840,318248
23.51465,402319
23.52092,507280
23.52717,610980
23.53342,603464
23.53968,518372
23.54593,381295
23.55218,281797
23.55843,243236
23.56470,236717
23.57095,257641
23.57720,301332
23.58347,354238
23.58972,410076
23.59597,414791
23.60223,367511
23.60848,315469
23.61473,264421
23.62100,240925
23.62725,220737
23.63350,217122
23.63977,215479
23.64602,228822
23.65227,231193
23.65853,223890
23.66478,215158
23.67103,196307
23.67730,192006
23.68355,195032
23.68980,206950
23.69607,221380
23.70232,225032
23.70857,226385
23.71483,233217
23.72108,271156
23.72733,355640
23.73360,469556
23.73985,546765
23.74610,526182
23.75237,432060
23.75862,330983
23.76487,263259
23.77113,226932
23.77738,220319
23.78363,214672
23.78988,215775
23.79615,216991
23.80240,217458
23.80865,224730
23.81492,232291
23.82117,255803
23.82742,272934
23.83368,282463
23.83993,266686
23.84618,248287
23.85245,227597
23.85870,227400
23.86495,223329
23.87122,229632
23.87747,235889
23.88372,271376
23.88998,316165
23.89623,379914
23.90248,397922
23.90875,391686
23.91500,348263
23.92125,310857
23.92752,273619
23.93377,259377
23.94002,257750
23.94628,263466
23.95253,300274
23.95878,462100
23.96505,1011180
23.97130,2288437
23.97755,4223859
23.98382,7039737
23.99007,1.076822E+07
23.99632,1.633567E+07
24.00257,2.333864E+07
24.00883,2.672997E+07
24.01508,2.622057E+07
24.02133,1.861629E+07
24.02760,1.019082E+07
24.03385,4286023
24.04010,1996017
24.04637,1252407
24.05262,913906
24.05887,734706
24.06513,612850
24.07138,548764
24.07763,550169
24.08390,562249
24.09015,559233
24.09640,581109
24.10267,772874
24.10892,1469703
24.11517,2852325
24.12143,4528508
24.12768,5775880
24.13393,5689758
24.14020,4350216
24.14645,2542618
24.15270,1370426
24.15897,776761
24.16522,555964
24.17147,450764
24.17773,424486
24.18398,446466
24.19023,523854
24.19650,695257
24.20275,1095869
24.20900,2308715
24.21525,5333653
24.22152,1.081622E+07
24.22777,1.886984E+07
24.23402,2.584788E+07
24.24028,3.116082E+07
24.24653,3.737905E+07
24.25278,4.038449E+07
24.25905,4.1671E+07
24.26530,4.207689E+07
24.27155,4.185323E+07
24.27782,4.109872E+07
24.28407,3.504303E+07
24.29032,1.134422E+07
24.29658,3502489
24.30283,2135789
24.30908,1707664
24.31535,1442903
24.32160,1323962
24.32785,1213809
24.33412,1156594
24.34037,1131217
24.34662,1140088
24.35288,1142649
24.35913,1168927
24.36538,1162815
24.37165,1215112
24.37790,1265823
24.38415,1275604
24.39042,1260945
24.39667,1181828
24.40292,1094111
24.40918,1002722
24.41543,935082
24.42168,905037
24.42795,895045
24.43420,985913
24.44045,1146330
24.44670,1341218
24.45297,1458309
24.45922,1368729
24.46547,1155203
24.47173,918521
24.47798,758974
24.48423,652594
24.49050,596270
24.49675,576139
24.50300,543057
24.50927,532042
24.51552,516330
24.52177,508695
24.52803,492696
24.53428,479441
24.54053,462292
24.54680,448456
24.55305,440503
24.55930,426612
24.56557,415039
24.57182,402204
24.57807,401615
24.58433,401245
24.59058,402201
24.59683,403114
24.60310,384785
24.60935,365929
24.61560,342661
24.62187,326481
24.62812,310233
24.63437,301093
24.64063,293194
24.64688,293662
24.65313,286709
24.65938,280021
24.66565,264273
24.67190,267505
24.67815,277300
24.68442,299324
24.69067,330141
24.69692,359997
24.70318,364895
24.70943,328990
24.71568,302699
24.72195,291839
24.72820,280014
24.73445,263731
24.74072,245510
24.74697,237424
24.75322,228008
24.75948,227470
24.76573,225862
24.77198,233573
24.77825,238412
24.78450,248177
24.79075,255733
24.79702,248772
24.80327,235851
24.80952,214192
24.81578,201237
24.82203,190781
24.82828,188587
24.83455,187661
24.84080,185921
24.84705,174517
24.85332,174225
24.85957,169630
24.86582,177941
24.87207,185627
24.87833,196621
24.88458,213008
24.89083,252703
24.89710,284637
24.90335,297949
24.90960,283713
24.91587,265393
24.92212,256328
24.92837,258588
24.93463,264242
24.94088,273410
24.94713,298187
24.95340,355313
24.95965,419632
24.96590,465489
24.97217,443081
24.97842,365177
24.98467,287529
24.99093,242406
24.99718,224879
25.00343,209371
25.00970,206772
25.01595,204702
25.02220,199143
25.02847,203019
25.03472,211303
25.04097,213473
25.04723,219182
25.05348,207354
25.05973,199191
25.06600,192021
25.07225,190813
25.07850,188403
25.08477,182374
25.09102,187197
25.09727,187454
25.10352,183234
25.10978,181412
25.11603,187365
25.12228,186949
25.12855,195059
25.13480,213160
25.14105,215160
25.14732,213911
25.15357,193928
25.15982,178266
25.16608,166868
25.17233,163540
25.17858,175570
25.18485,206939
25.19110,247669
25.19735,289506
25.20362,297127
25.20987,271382
25.21612,226163
25.22238,194516
25.22863,167008
25.23488,160098
25.24115,157652
25.24740,155796
25.25365,155988
25.25992,158062
25.26617,153290
25.27242,151850
25.27868,161866
25.28493,180148
25.29118,215902
25.29745,289708
25.30370,354346
25.30995,357242
25.31620,325549
25.32247,271787
25.32872,220688
25.33497,194471
25.34123,178462
25.34748,167496
25.35373,163616
25.36000,157234
25.36625,156764
25.37250,161759
25.37877,166491
25.38502,166249
25.39127,167141
25.39753,173125
25.40378,190985
25.41003,199563
25.41630,228540
25.42255,218603
25.42880,218721
25.43507,206294
25.44132,195667
25.44757,189804
25.45383,185930
25.46008,180450
25.46633,175664
25.47260,171716
25.47885,166076
25.48510,170115
25.49137,183756
25.49762,222497
25.50387,278778
25.51013,343864
25.51638,363225
25.52263,337274
25.52890,320213
25.53515,307998
25.54140,344511
25.54765,438921
25.55392,520476
25.56017,500887
25.56642,401542
25.57268,311686
25.57893,240614
25.58518,204457
25.59145,181957
25.59770,170951
25.60395,169873
25.61022,170726
25.61647,172210
25.62272,169596
25.62898,160950
25.63523,155876
25.64148,158257
25.64775,150357
25.65400,150125
25.66025,140999
25.66652,139361
25.67277,142370
25.67902,142615
25.68528,144215
25.69153,144909
25.69778,145985
25.70405,146863
25.71030,141466
25.71655,142524
25.72282,134940
25.72907,136052
25.73532,134416
25.74158,139336
25.74783,136617
25.75408,139889
25.76033,139193
25.76660,142408
25.77285,136761
25.77910,139496
25.78537,139353
25.79162,136106
25.79787,138986
25.80413,135377
25.81038,131789
25.81663,131446
25.82290,128977
25.82915,129250
25.83540,127649
25.84167,126515
25.84792,132617
25.85417,133237
25.86043,130630
25.86668,137345
25.87293,135205
25.87920,133598
25.88545,131254
25.89170,125961
25.89797,129722
25.90422,129902
25.91047,128412
25.91673,128756
25.92298,129978
25.92923,127744
25.93550,133753
25.94175,133761
25.94800,134510
25.95427,132449
25.96052,130616
25.96677,130892
25.97303,132581
25.97928,133471
25.98553,143148
25.99178,145951
25.99805,138972
26.00430,136638
26.01055,135328
26.01682,131936
26.02307,133888
26.02932,136162
26.03558,136832
26.04183,140672
26.04808,141394
26.05435,143716
26.06060,151447
26.06685,146668
26.07312,146626
26.07937,140635
26.08562,133985
26.09188,133231
26.09813,131213
26.10438,129114
26.11065,133947
26.11690,131131
26.12315,132011
26.12942,135013
26.13567,128779
26.14192,126864
26.14818,129950
26.15443,127081
26.16068,125482
26.16695,124310
26.17320,125373
26.17945,128171
26.18572,130437
26.19197,130125
26.19822,130326
26.20447,132057
26.21073,126680
26.21698,131579
26.22323,131169
26.22950,128892
26.23575,130532
26.24200,131889
26.24827,128674
26.25452,127401
26.26077,133464
26.26703,125634
26.27328,127131
26.27953,132920
26.28580,125716
26.29205,131339
26.29830,130908
26.30457,127314
26.31082,128414
26.31707,128855
26.32333,130430
26.32958,130109
26.33583,134004
26.34210,131715
26.34835,136237
26.35460,138685
26.36087,136272
26.36712,146373
26.37337,178889
26.37963,222414
26.38588,268570
26.39213,300133
26.39840,295657
26.40465,241552
26.41090,192655
26.41717,162585
26.42342,149814
26.42967,144066
26.43592,145658
26.44218,142171
26.44843,142494
26.45468,140519
26.46095,136449
26.46720,144985
26.47345,146078
26.47972,143017
26.48597,148588
26.49222,149630
26.49848,149499
26.50473,148026
26.51098,146425
26.51725,146808
26.52350,150328
26.52975,156725
26.53602,167123
26.54227,178904
26.54852,179869
26.55478,173604
26.56103,158431
26.56728,149948
26.57355,146088
26.57980,142305
26.58605,139729
26.59232,143237
26.59857,142598
26.60482,145982
26.61108,155207
26.61733,163930
26.62358,177096
26.62985,178479
26.63610,168167
26.64235,161352
26.64860,152229
26.65487,156893
26.66112,166159
26.66737,187929
26.67363,209607
26.67988,221637
26.68613,223967
26.69240,215245
26.69865,212401
26.70490,227945
26.71117,238872
26.71742,240976
26.72367,221772
26.72993,196830
26.73618,183459
26.74243,170782
26.74870,174526
26.75495,175638
26.76120,205914
26.76747,275274
26.77372,346324
26.77997,378725
26.78623,376958
26.79248,332536
26.79873,299271
26.80500,281173
26.81125,275239
26.81750,262067
26.82377,256201
26.83002,295458
26.83627,399771
26.84253,524442
26.84878,597942
26.85503,572873
26.86128,473317
26.86755,357537
26.87380,276080
26.88005,254420
26.88632,268500
26.89257,299843
26.89882,370790
26.90508,517822
26.91133,923432
26.91758,2179483
26.92385,4896307
26.93010,8768537
26.93635,1.426365E+07
26.94262,1.901149E+07
26.94887,2.329764E+07
26.95512,1.958485E+07
26.96138,1.118766E+07
26.96763,4921467
26.97388,2474691
26.98015,1519170
26.98640,987363
26.99265,684844
26.99892,509362
27.00517,434983
27.01142,434777
27.01768,535949
27.02393,814289
27.03018,1193887
27.03645,1504241
27.04270,1426028
27.04895,1042070
27.05522,727095
27.06147,536177
27.06772,449197
27.07398,406794
27.08023,378734
27.08648,340226
27.09273,307958
27.09900,286759
27.10525,269902
27.11150,251536
27.11777,241442
27.12402,243320
27.13027,285696
27.13653,348163
27.14278,437981
27.14903,501430
27.15530,493826
27.16155,419756
27.16780,333178
27.17407,288347
27.18032,271697
27.18657,268396
27.19283,263854
27.19908,255361
27.20533,237801
27.21160,242631
27.21785,240904
27.22410,236929
27.23037,234497
27.23662,236260
27.24287,225912
27.24913,231652
27.25538,241672
27.26163,256132
27.26790,249366
27.27415,243213
27.28040,228666
27.28667,222079
27.29292,220287
27.29917,214047
27.30542,214226
27.31168,212683
27.31793,216860
27.32418,214010
27.33045,214594
27.33670,216401
27.34295,218736
27.34922,216309
27.35547,217447
27.36172,226594
27.36798,234338
27.37423,231266
27.38048,227465
27.38675,225886
27.39300,223108
27.39925,226460
27.40552,238547
27.41177,268564
27.41802,291943
27.42428,298413
27.43053,289499
27.43678,257816
27.44305,243547
27.44930,229860
27.45555,228825
27.46182,210990
27.46807,199783
27.47432,202567
27.48058,198234
27.48683,204349
27.49308,205496
27.49935,205231
27.50560,200510
27.51185,195985
27.51810,189633
27.52437,188243
27.53062,194230
27.53687,198085
27.54313,199527
27.54938,199738
27.55563,203997
27.56190,191864
27.56815,194564
27.57440,184737
27.58067,191609
27.58692,191020
27.59317,191760
27.59943,189921
27.60568,191913
27.61193,192368
27.61820,187622
27.62445,192425
27.63070,192313
27.63697,196261
27.64322,193455
27.64947,192763
27.65573,193830
27.66198,187366
27.66823,196289
27.67450,199191
27.68075,194311
27.68700,203327
27.69327,195920
27.69952,198658
27.70577,203921
27.71203,195213
27.71828,201564
27.72453,208576
27.73080,219660
27.73705,225466
27.74330,216943
27.74955,207832
27.75582,215075
27.76207,213365
27.76832,209131
27.77458,210608
27.78083,213013
27.78708,203114
27.79335,203376
27.79960,203696
27.80585,199415
27.81212,198747
27.81837,199113
27.82462,194978
27.83088,195594
27.83713,201069
27.84338,204052
27.84965,202976
27.85590,221166
27.86215,234046
27.86842,251700
27.87467,256641
27.88092,256844
27.88718,241871
27.89343,236909
27.89968,220078
27.90595,213727
27.91220,213786
27.91845,214218
27.92472,212034
27.93097,210377
27.93722,209496
27.94348,206964
27.94973,200758
27.95598,208961
27.96223,204685
27.96850,202491
27.97475,208257
27.98100,216299
27.98727,213192
27.99352,216241
27.99977,223673
28.00603,224405
28.01228,223632
28.01853,220687
28.02480,228154
28.03105,221896
28.03730,205338
28.04357,217367
28.04982,211004
28.05607,212171
28.06233,204122
28.06858,214295
28.07483,216492
28.08110,206271
28.08735,203062
28.09360,214040
28.09987,206581
28.10612,210886
28.11237,212808
28.11863,205686
28.12488,206685
28.13113,218275
28.13740,207381
28.14365,209096
28.14990,211769
28.15617,208553
28.16242,208254
28.16867,207574
28.17493,215942
28.18118,215074
28.18743,210233
28.19368,209370
28.19995,205349
28.20620,206725
28.21245,207761
28.21872,205387
28.22497,213098
28.23122,209469
28.23748,218544
28.24373,218630
28.24998,214089
28.25625,217614
28.26250,212892
28.26875,210739
28.27502,214630
28.28127,212089
28.28752,213439
28.29378,217272
28.30003,212503
28.30628,218404
28.31255,225445
28.31880,226959
28.32505,232954
28.33132,228691
28.33757,237146
28.34382,247300
28.35008,238509
28.35633,240198
28.36258,247068
28.36885,259576
28.37510,265090
28.38135,275695
28.38762,271808
28.39387,278875
28.40012,277953
28.40637,291924
28.41263,288194
28.41888,283916
28.42513,299213
28.43140,297131
28.43765,302515
28.44390,298318
28.45017,287422
28.45642,284256
28.46267,277061
28.46893,277788
28.47518,268385
28.48143,271251
28.48770,265732
28.49395,260635
28.50020,255475
28.50647,251369
28.51272,250109
28.51897,245672
28.52523,244103
28.53148,241867
28.53773,236000
28.54400,234571
28.55025,238592
28.55650,225210
28.56277,221620
28.56902,232135
28.57527,229929
28.58153,223370
28.58778,227713
28.59403,221394
28.60030,219275
28.60655,218844
28.61280,215301
28.61907,219352
28.62532,219402
28.63157,217349
28.63782,220136
28.64408,223075
28.65033,222423
28.65658,221883
28.66285,218307
28.66910,220765
28.67535,224880
28.68162,219074
28.68787,216982
28.69412,216418
28.70038,209649
28.70663,213202
28.71288,211586
28.71915,218959
28.72540,209609
28.73165,221037
28.73792,216793
28.74417,214815
28.75042,216731
28.75668,217279
28.76293,212188
28.76918,213295
28.77545,210376
28.78170,215320
28.78795,208994
28.79422,209047
28.80047,210165
28.80672,214300
28.81298,208690
28.81923,210905
28.82548,208054
28.83175,211664
28.83800,214781
28.84425,215027
28.85050,211501
28.85677,205564
28.86302,209594
28.86927,204185
28.87553,208428
28.88178,212991
28.88803,208298
28.89430,204856
28.90055,206246
28.90680,203681
28.91307,210615
28.91932,205651
28.92557,203012
28.93183,202730
28.93808,202654
28.94433,202309
28.95060,203263
28.95685,202807
28.96310,207990
28.96937,211167
28.97562,207516
28.98187,209656
28.98813,203711
28.99438,202387
29.00063,201632
29.00690,207005
29.01315,206223
29.01940,204641
29.02567,206438
29.03192,207202
29.03817,212197
29.04443,202447
29.05068,204406
29.05693,208567
29.06320,206176
29.06945,200137
29.07570,201706
29.08195,203381
29.08822,206720
29.09447,209829
29.10072,202428
29.10698,197695
29.11323,197898
29.11948,202253
29.12575,206072
29.13200,207283
29.13825,202729
29.14452,199894
29.15077,200981
29.15702,206582
29.16328,207599
29.16953,202364
29.17578,200557
29.18205,200073
29.18830,207660
29.19455,199181
29.20082,204430
29.20707,203901
29.21332,204777
29.21958,199325
29.22583,202378
29.23208,209843
29.23835,222418
29.24460,229129
29.25085,236749
29.25712,240924
29.26337,229032
29.26962,229633
29.27588,218175
29.28213,209369
29.28838,208519
29.29463,202284
29.30090,214936
29.30715,205376
29.31340,210390
29.31967,200388
29.32592,203741
29.33217,214309
29.33843,208869
29.34468,202937
29.35093,200675
29.35720,202050
29.36345,197445
29.36970,203327
29.37597,206169
29.38222,209981
29.38847,201092
29.39473,202966
29.40098,197376
29.40723,201924
29.41350,205508
29.41975,198468
29.42600,200321
29.43227,197803
29.43852,206096
29.44477,199370
29.45103,199459
29.45728,199637
29.46353,200505
29.46980,197929
29.47605,194843
29.48230,199915
29.48857,195199
29.49482,195321
29.50107,198935
29.50732,197656
29.51358,196526
29.51983,198629
29.52608,201172
29.53235,198245
29.53860,204061
29.54485,196928
29.55112,198267
29.55737,195739
29.56362,202348
29.56988,195056
29.57613,196455
29.58238,194428
29.58865,192934
29.59490,195199
29.60115,197514
29.60742,201322
29.61367,197146
29.61992,199624
29.62618,196245
29.63243,196615
29.63868,194814
29.64495,194230
29.65120,202437
29.65745,191514
29.66372,195612
29.66997,194115
29.67622,195324
29.68248,195827
29.68873,202737
29.69498,190826
29.70125,190376
29.70750,202571
29.71375,195622
29.72002,192579
29.72627,198364
29.73252,191050
29.73877,199969
29.74503,188830
29.75128,192316
29.75753,194225
29.76380,193121
29.77005,194276
29.77630,192668
29.78257,202233
29.78882,197342
29.79507,199435
29.80133,191829
29.80758,197632
29.81383,200341
29.82010,194560
29.82635,193988
29.83260,194301
29.83887,189927
29.84512,190926
29.85137,194344
29.85763,197945
29.86388,198818
29.87013,188507
29.87640,192644
29.88265,195796
29.88890,197307
29.89517,190797
29.90142,186899
29.90767,184313
29.91393,192259
29.92018,192626
29.92643,193331
29.93270,198202
29.93895,195358
29.94520,191085
29.95145,188403
29.95772,191258
29.96397,192323
29.97022,193930
29.97648,192195
29.98273,192627
29.98898,193764
29.99525,195013
30.00150,193789
30.00775,190680
30.01402,195676
30.02027,188028
30.02652,190512
30.03278,187373
30.03903,187693
30.04528,186196
30.05155,189363
30.05780,192471
30.06405,186421
30.07032,187781
30.07657,187173
30.08282,189101
30.08908,191972
30.09533,193143
30.10158,189279
30.10785,188383
30.11410,190724
30.12035,196920
30.12662,186447
30.13287,187469
30.13912,185607
30.14538,189040
30.15163,188676
30.15788,192307
30.16413,191321
30.17040,184668
30.17665,181512
30.18290,187966
30.18917,189283
30.19542,194785
30.20167,183441
30.20793,190075
30.21418,183514
30.22043,184083
30.22670,183105
30.23295,185305
30.23920,183649
30.24547,181928
30.25172,188435
30.25797,192666
30.26423,189673
30.27048,184795
30.27673,186635
30.28300,182794
30.28925,181366
30.29550,184736
30.30177,189196
30.30802,183416
30.31427,184993
30.32053,184603
30.32678,183449
30.33303,179137
30.33930,190551
30.34555,184433
30.35180,188553
30.35807,185492
30.36432,188626
30.37057,183633
30.37683,191072
30.38308,182838
30.38933,184925
30.39558,189616
30.40185,187985
30.40810,182137
30.41435,186399
30.42062,188493
30.42687,178846
30.43312,185652
30.43938,181781
30.44563,186066
30.45188,181456
30.45815,177328
30.46440,188670
30.47065,188271
30.47692,180503
30.48317,183645
30.48942,179933
30.49568,184748
30.50193,183265
30.50818,182528
30.51445,181312
30.52070,179687
30.52695,186172
30.53322,182952
30.53947,177808
30.54572,185253
30.55198,188651
30.55823,186745
30.56448,189124
30.57075,179988
30.57700,178611
30.58325,187116
30.58952,181638
30.59577,179971
30.60202,179828
30.60827,183316
30.61453,182363
30.62078,182553
30.62703,185004
30.63330,190108
30.63955,184141
30.64580,176730
30.65207,176652
30.65832,183536
30.66457,178017
30.67083,178479
30.67708,180988
30.68333,183439
30.68960,191568
30.69585,197472
30.70210,199204
30.70837,196012
30.71462,202249
30.72087,205527
30.72713,206488
30.73338,197060
30.73963,197424
30.74590,189204
30.75215,187234
30.75840,187369
30.76467,181722
30.77092,187542
30.77717,187430
30.78343,184353
30.78968,181938
30.79593,182692
30.80220,188583
30.80845,186855
30.81470,185575
30.82097,184309
30.82722,181235
30.83347,177669
30.83972,178610
30.84598,177331
30.85223,177078
30.85848,179318
30.86475,178205
30.87100,182488
30.87725,174428
30.88352,176877
30.88977,179527
30.89602,175268
30.90228,176120
30.90853,180495
30.91478,181902
30.92105,184099
30.92730,180309
30.93355,179048
30.93982,176034
30.94607,183205
30.95232,176630
30.95858,174988
30.96483,181063
30.97108,178248
30.97735,173720
30.98360,176696
30.98985,178762
30.99612,180973
31.00237,184002
31.00862,185557
31.01488,185170
31.02113,191414
31.02738,196127
31.03365,187847
31.03990,191712
31.04615,187653
31.05240,181451
31.05867,181257
31.06492,183338
31.07117,177968
31.07743,183842
31.08368,174850
31.08993,178895
31.09620,176380
31.10245,175139
31.10870,173860
31.11497,178071
31.12122,181968
31.12747,172069
31.13373,173784
31.13998,174590
31.14623,172245
31.15250,183291
31.15875,174378
31.16500,175208
31.17127,176535
31.17752,178358
31.18377,172805
31.19003,171771
31.19628,180199
31.20253,174542
31.20880,180343
31.21505,174441
31.22130,180621
31.22757,176425
31.23382,176669
31.24007,180234
31.24633,174396
31.25258,170903
31.25883,172130
31.26510,177948
31.27135,172426
31.27760,173275
31.28385,175441
31.29012,175322
31.29637,171616
31.30262,177955
31.30888,172623
31.31513,177556
31.32138,177961
31.32765,174109
31.33390,175806
31.34015,177817
31.34642,170892
31.35267,171788
31.35892,178659
31.36518,172697
31.37143,173495
31.37768,175911
31.38395,171832
31.39020,174710
31.39645,173515
31.40272,178335
31.40897,177210
31.41522,179186
31.42148,177857
31.42773,174608
31.43398,179600
31.44025,183753
31.44650,180797
31.45275,178333
31.45902,185291
31.46527,181014
31.47152,180827
31.47778,177539
31.48403,177750
31.49028,174018
31.49653,176426
31.50280,174505
31.50905,179458
31.51530,180900
31.52157,173419
31.52782,178399
31.53407,177555
31.54033,172919
31.54658,180248
31.55283,169927
31.55910,177476
31.56535,177165
31.57160,170982
31.57787,172050
31.58412,172651
31.59037,169734
31.59663,174821
31.60288,174515
31.60913,174037
31.61540,167406
31.62165,171130
31.62790,172453
31.63417,172643
31.64042,168854
31.64667,174673
31.65293,171564
31.65918,170637
31.66543,170827
31.67170,174534
31.67795,164726
31.68420,169723
31.69047,174279
31.69672,168612
31.70297,166934
31.70923,168340
31.71548,168851
31.72173,173226
31.72798,168093
31.73425,170999
31.74050,167871
31.74675,168978
31.75302,169007
31.75927,168482
31.76552,168327
31.77178,168391
31.77803,173806
31.78428,167844
31.79055,172785
31.79680,168103
31.80305,166845
31.80932,170316
31.81557,164924
31.82182,164598
31.82808,168797
31.83433,166230
31.84058,163847
31.84685,165916
31.85310,170595
31.85935,166003
31.86562,167510
31.87187,167192
31.87812,167141
31.88438,167539
31.89063,174206
31.89688,165368
31.90315,164497
31.90940,167851
31.91565,173277
31.92192,163152
31.92817,162918
31.93442,169518
31.94067,173039
31.94693,169379
31.95318,168757
31.95943,170661
31.96570,165116
31.97195,165583
31.97820,164861
31.98447,169879
31.99072,165760
31.99697,162212
32.00323,169698
32.00948,164162
32.01573,164051
32.02200,163098
32.02825,163235
32.03450,169774
32.04077,165138
32.04702,170802
32.05327,166207
32.05953,162656
32.06578,161369
32.07203,164397
32.07830,167103
32.08455,164586
32.09080,169521
32.09707,164570
32.10332,165168
32.10957,162386
32.11583,165944
32.12208,163090
32.12833,165557
32.13460,157214
32.14085,167526
32.14710,162369
32.15335,165138
32.15962,168676
32.16587,159849
32.17212,163019
32.17838,167303
32.18463,167573
32.19088,162090
32.19715,162043
32.20340,168573
32.20965,162519
32.21592,165012
32.22217,165766
32.22842,161998
32.23468,164870
32.24093,163979
32.24718,164076
32.25345,165031
32.25970,166216
32.26595,165845
32.27222,162807
32.27847,166534
32.28472,168533
32.29098,163041
32.29723,162299
32.30348,165303
32.30975,164015
32.31600,159665
32.32225,162868
32.32852,162669
32.33477,161482
32.34102,159361
32.34728,162225
32.35353,164157
32.35978,163012
32.36605,166862
32.37230,163923
32.37855,165322
32.38480,160056
32.39107,162929
32.39732,163569
32.40357,162297
32.40983,164726
32.41608,159939
32.42233,165256
32.42860,160476
32.43485,162020
32.44110,163221
32.44737,165276
32.45362,162793
32.45987,158656
32.46613,163059
32.47238,164741
32.47863,159984
32.48490,159974
32.49115,160761
32.49740,163834
32.50367,158722
32.50992,160922
32.51617,161710
32.52243,162015
32.52868,159387
32.53493,160721
32.54120,158485
32.54745,158659
32.55370,166523
32.55997,156584
32.56622,163492
32.57247,158932
32.57873,159387
32.58498,163262
32.59123,156069
32.59748,157200
32.60375,161808
32.61000,161617
32.61625,156821
32.62252,157660
32.62877,157485
32.63502,157678
32.64128,161288
32.64753,157105
32.65378,165859
32.66005,155770
32.66630,160501
32.67255,163174
32.67882,159440
32.68507,158219
32.69132,160408
32.69758,158344
32.70383,163174
32.71008,161707
32.71635,166021
32.72260,157183
32.72885,157083
32.73512,162068
32.74137,159392
32.74762,153443
32.75388,157140
32.76013,157873
32.76638,155709
32.77265,158447
32.77890,157080
32.78515,158919
32.79142,157361
32.79767,154559
32.80392,155298
32.81018,161770
32.81643,162214
32.82268,155680
32.82893,160998
32.83520,152640
32.84145,157325
32.84770,155582
32.85397,157848
32.86022,160933
32.86647,159451
32.87273,161036
32.87898,156824
32.88523,163268
32.89150,153672
32.89775,154819
32.90400,154964
32.91027,159231
32.91652,156072
32.92277,151663
32.92903,160212
32.93528,156500
32.94153,157115
32.94780,157731
32.95405,155282
32.96030,161954
32.96657,156409
32.97282,158278
32.97907,153753
32.98533,159863
32.99158,157379
32.99783,153797
33.00410,154082
33.01035,156075
33.01660,152596
33.02287,153670
33.02912,154743
33.03537,154189
33.04162,159232
33.04788,154358
33.05413,151700
33.06038,155342
33.06665,162318
33.07290,158166
33.07915,157145
33.08542,158825
33.09167,155265
33.09792,154220
33.10418,153053
33.11043,152713
33.11668,148780
33.12295,154595
33.12920,159981
33.13545,161367
33.14172,162580
33.14797,159413
33.15422,153907
33.16048,156799
33.16673,160674
33.17298,160747
33.17925,162109
33.18550,167347
33.19175,166950
33.19802,166550
33.20427,167548
33.21052,164383
33.21678,164372
33.22303,162741
33.22928,166712
33.23555,162583
33.24180,158788
33.24805,158929
33.25432,160705
33.26057,154544
33.26682,156709
33.27307,156280
33.27933,155572
33.28558,155574
33.29183,154984
33.29810,154481
33.30435,157322
33.31060,155356
33.31687,154875
33.32312,152213
33.32937,157929
33.33563,157361
33.34188,149302
33.34813,152643
33.35440,153556
33.36065,154105
33.36690,152645
33.37317,155118
33.37942,153747
33.38567,158044
33.39193,158834
33.39818,154093
33.40443,155700
33.41070,157408
33.41695,156959
33.42320,153228
33.42947,152444
33.43572,155929
33.44197,153359
33.44823,156248
33.45448,153210
33.46073,152160
33.46700,153450
33.47325,157097
33.47950,152978
33.48575,149499
33.49202,153794
33.49827,157915
33.50452,151651
33.51078,155014
33.51703,155197
33.52328,149787
33.52955,158485
33.53580,152447
33.54205,147774
33.54832,152893
33.55457,150411
33.56082,157100
33.56708,147617
33.57333,148870
33.57958,151292
33.58585,151149
33.59210,150312
33.59835,147066
33.60462,151204
33.61087,147504
33.61712,154652
33.62338,153487
33.62963,150597
33.63588,149023
33.64215,148251
33.64840,153079
33.65465,146435
33.66092,148790
33.66717,149963
33.67342,150311
33.67968,154785
33.68593,146954
33.69218,148538
33.69845,153290
33.70470,146458
33.71095,151973
33.71720,147086
33.72347,152197
33.72972,145086
33.73597,153535
33.74223,149890
33.74848,146457
33.75473,155361
33.76100,152254
33.76725,145427
33.77350,153559
33.77977,147240
33.78602,151856
33.79227,151992
33.79853,153622
33.80478,149375
33.81103,147051
33.81730,151301
33.82355,151715
33.82980,148106
33.83607,147246
33.84232,145430
33.84857,151758
33.85483,146613
33.86108,146619
33.86733,148736
33.87360,151026
33.87985,152144
33.88610,148190
33.89237,147806
33.89862,145904
33.90487,144865
33.91113,142492
33.91738,150936
33.92363,153486
33.92988,142570
33.93615,146530
33.94240,146200
33.94865,141197
33.95492,150597
33.96117,145174
33.96742,147312
33.97368,145743
33.97993,149508
33.98618,150566
33.99245,151441
33.99870,146081
34.00495,148718
34.01122,143886
34.01747,145624
34.02372,150720
34.02998,146753
34.03623,145735
34.04248,150515
34.04875,144887
34.05500,149848
34.06125,143040
34.06752,144592
34.07377,144410
34.08002,146899
34.08628,146427
34.09253,142428
34.09878,147885
34.10505,143353
34.11130,149630
34.11755,144800
34.12382,144244
34.13007,143580
34.13632,142006
34.14257,146603
34.14883,147884
34.15508,148720
34.16133,142669
34.16760,148085
34.17385,145779
34.18010,145431
34.18637,142965
34.19262,146826
34.19887,143777
34.20513,150594
34.21138,145514
34.21763,141535
34.22390,146786
34.23015,144505
34.23640,147007
34.24267,143932
34.24892,149522
34.25517,143379
34.26143,143356
34.26768,144601
34.27393,144703
34.28020,149799
34.28645,143742
34.29270,147818
34.29897,141739
34.30522,141244
34.31147,143396
34.31773,145031
34.32398,144080
34.33023,147751
34.33650,138786
34.34275,143559
34.34900,146629
34.35527,147390
34.36152,142639
34.36777,143604
34.37402,146617
34.38028,143295
34.38653,144088
34.39278,140907
34.39905,141549
34.40530,144447
34.41155,144931
34.41782,141367
34.42407,142560
34.43032,141287
34.43658,141582
34.44283,142892
34.44908,148076
34.45535,141977
34.46160,141779
34.46785,142503
34.47412,139948
34.48037,140665
34.48662,141610
34.49288,144843
34.49913,144658
34.50538,144684
34.51165,146814
34.51790,145493
34.52415,142228
34.53042,146914
34.53667,146406
34.54292,146245
34.54918,143219
34.55543,143837
34.56168,141394
34.56795,142079
34.57420,146418
34.58045,138993
34.58670,143144
34.59297,146779
34.59922,142298
34.60547,143549
34.61173,143125
34.61798,139209
34.62423,148004
34.63050,141049
34.63675,145242
34.64300,138799
34.64927,144026
34.65552,143983
34.66177,142297
34.66803,143153
34.67428,144212
34.68053,148025
34.68680,137274
34.69305,141904
34.69930,139007
34.70557,144409
34.71182,142692
34.71807,141949
34.72433,140520
34.73058,140534
34.73683,137996
34.74310,144974
34.74935,143579
34.75560,142439
34.76187,143453
34.76812,145041
34.77437,143172
34.78063,136195
34.78688,140357
34.79313,145533
34.79938,148143
34.80565,138678
34.81190,137307
34.81815,138705
34.82442,138738
34.83067,137566
34.83692,138250
34.84318,142213
34.84943,140467
34.85568,135434
34.86195,142494
34.86820,137618
34.87445,138132
34.88072,141094
34.88697,139189
34.89322,141276
34.89948,137915
34.90573,137118
34.91198,144391
34.91825,141274
34.92450,140852
34.93075,139873
34.93702,143765
34.94327,139489
34.94952,138160
34.95578,143384
34.96203,140729
34.96828,137246
34.97455,140037
34.98080,137397
34.98705,139462
34.99332,142450
34.99957,137779
35.00582,141517
35.01208,137896
35.01833,139866
35.02458,141518
35.03083,140345
35.03710,141140
35.04335,135026
35.04960,145751
35.05587,139778
35.06212,137528
35.06837,137457
35.07463,142096
35.08088,138782
35.08713,135701
35.09340,139833
35.09965,135286
35.10590,139036
35.11217,137106
35.11842,140616
35.12467,139852
35.13093,138600
35.13718,136868
35.14343,136401
35.14970,135889
35.15595,134436
35.16220,136451
35.16847,138350
35.17472,139883
35.18097,142304
35.18723,136457
35.19348,143257
35.19973,140770
35.20600,133988
35.21225,139340
35.21850,137880
35.22477,135709
35.23102,140130
35.23727,133918
35.24352,140275
35.24978,139608
35.25603,139452
35.26228,139324
35.26855,134293
35.27480,140422
35.28105,137935
35.28732,137976
35.29357,141132
35.29982,136627
35.30608,136198
35.31233,138303
35.31858,136514
35.32485,140900
35.33110,137370
35.33735,136508
35.34362,134943
35.34987,133746
35.35612,133660
35.36238,134090
35.36863,136937
35.37488,137839
35.38115,133580
35.38740,134890
35.39365,132476
35.39992,139509
35.40617,133093
35.41242,135074
35.41868,134887
35.42493,137765
35.43118,138764
35.43745,136304
35.44370,134420
35.44995,133484
35.45622,139567
35.46247,134076
35.46872,135832
35.47497,134000
35.48123,136721
35.48748,140213
35.49373,140683
35.50000,136042
35.50625,134220
35.51250,130874
35.51877,136206
35.52502,135052
35.53127,138164
35.53753,134020
35.54378,138601
35.55003,137440
35.55630,133914
35.56255,139432
35.56880,133090
35.57507,135640
35.58132,138199
35.58757,136353
35.59383,137007
35.60008,136957
35.60633,132939
35.61260,136464
35.61885,138118
35.62510,133694
35.63137,138766
35.63762,134191
35.64387,133523
35.65013,137759
35.65638,135214
35.66263,134461
35.66890,134058
35.67515,138888
35.68140,135415
35.68765,134175
35.69392,137147
35.70017,135484
35.70642,137248
35.71268,138094
35.71893,131094
35.72518,133364
35.73145,131919
35.73770,135068
35.74395,133527
35.75022,134830
35.75647,137549
35.76272,133395
35.76898,127628
35.77523,137523
35.78148,135598
35.78775,133594
35.79400,132224
35.80025,136261
35.80652,132461
35.81277,135477
35.81902,132860
35.82528,131743
35.83153,134969
35.83778,133039
35.84405,137388
35.85030,139383
35.85655,129289
35.86282,131774
35.86907,136184
35.87532,133464
35.88158,130973
35.88783,133967
35.89408,129944
35.90035,129804
35.90660,129350
35.91285,136208
35.91910,129342
35.92537,129872
35.93162,131293
35.93787,132801
35.94413,132755
35.95038,136761
35.95663,133803
35.96290,137234
35.96915,130652
35.97540,130772
35.98167,131433
35.98792,134795
35.99417,129041
36.00043,130133
36.00668,128898
36.01293,130601
36.01920,135726
36.02545,131694
36.03170,131208
36.03797,135168
36.04422,126859
36.05047,136157
36.05673,131085
36.06298,131542
36.06923,134643
36.07550,130202
36.08175,131944
36.08800,129171
36.09427,135338
36.10052,130174
36.10677,133203
36.11303,134991
36.11928,135235
36.12553,131388
36.13178,131240
36.13805,126052
36.14430,129504
36.15055,134715
36.15682,134416
36.16307,133720
36.16932,128492
36.17558,127079
36.18183,131365
36.18808,133093
36.19435,131691
36.20060,135833
36.20685,132585
36.21312,130826
36.21937,130298
36.22562,135313
36.23188,138386
36.23813,129708
36.24438,130947
36.25065,133164
36.25690,135488
36.26315,136879
36.26942,143683
36.27567,146003
36.28192,153525
36.28818,158180
36.29443,163638
36.30068,176564
36.30695,190377
36.31320,194343
36.31945,204777
36.32572,213245
36.33197,227215
36.33822,236262
36.34448,240220
36.35073,249239
36.35698,236435
36.36323,242512
36.36950,236180
36.37575,231284
36.38200,216089
36.38827,207368
36.39452,198847
36.40077,189734
36.40703,185293
36.41328,173547
36.41953,167939
36.42580,166102
36.43205,155995
36.43830,156582
36.44457,149633
36.45082,146722
36.45707,145589
36.46333,146922
36.46958,142184
36.47583,148429
36.48210,145375
36.48835,141237
36.49460,140884
36.50087,138499
36.50712,146105
36.51337,141516
36.51963,136160
36.52588,136827
36.53213,135599
36.53840,138113
36.54465,136967
36.55090,136120
36.55717,136744
36.56342,136305
36.56967,137026
36.57592,132018
36.58218,138400
36.58843,133170
36.59468,135021
36.60095,133974
36.60720,139273
36.61345,139420
36.61972,135646
36.62597,133003
36.63222,135514
36.63848,134645
36.64473,134252
36.65098,128261
36.65725,131745
36.66350,132953
36.66975,136909
36.67602,133345
36.68227,131184
36.68852,134015
36.69478,137779
36.70103,135199
36.70728,132859
36.71355,129184
36.71980,131794
36.72605,132097
36.73232,130242
36.73857,133135
36.74482,132160
36.75108,134318
36.75733,133466
36.76358,130381
36.76985,131239
36.77610,130665
36.78235,132353
36.78860,129796
36.79487,128937
36.80112,131547
36.80737,128574
36.81363,129229
36.81988,129883
36.82613,134934
36.83240,127891
36.83865,128241
36.84490,133548
36.85117,128023
36.85742,129091
36.86367,127910
36.86993,127346
36.87618,133647
36.88243,128860
36.88870,131131
36.89495,130468
36.90120,124679
36.90747,125983
36.91372,131853
36.91997,126117
36.92623,127554
36.93248,127431
36.93873,131884
36.94500,126054
36.95125,132237
36.95750,130600
36.96377,127671
36.97002,126378
36.97627,127985
36.98253,126219
36.98878,128395
36.99503,128906
37.00130,131880
37.00755,128754
37.01380,125754
37.02005,127264
37.02632,125416
37.03257,128849
37.03882,129070
37.04508,126924
37.05133,129928
37.05758,134305
37.06385,130100
37.07010,127193
37.07635,127199
37.08262,127524
37.08887,130721
37.09512,126334
37.10138,124849
37.10763,131474
37.11388,127142
37.12015,126742
37.12640,127078
37.13265,125105
37.13892,126856
37.14517,126409
37.15142,128086
37.15768,126111
37.16393,130720
37.17018,128563
37.17645,125261
37.18270,123234
37.18895,125178
37.19522,126175
37.20147,123626
37.20772,123568
37.21398,127432
37.22023,124589
37.22648,126928
37.23273,125148
37.23900,126916
37.24525,126908
37.25150,125197
37.25777,125605
37.26402,125549
37.27027,125393
37.27653,130476
37.28278,127155
37.28903,122900
37.29530,125524
37.30155,128802
37.30780,125517
37.31407,125230
37.32032,129278
37.32657,126848
37.33283,127403
37.33908,120874
37.34533,123496
37.35160,123662
37.35785,128325
37.36410,125169
37.37037,127485
37.37662,122977
37.38287,124466
37.38913,121162
37.39538,127314
37.40163,128348
37.40790,128851
37.41415,125123
37.42040,121090
37.42667,127454
37.43292,126888
37.43917,123766
37.44542,124141
37.45168,130308
37.45793,124344
37.46418,123172
37.47045,126355
37.47670,124007
37.48295,126097
37.48922,121958
