D:\MassHunter\GCMS\1\data\metastasis_lineages_3replicates_3runs_10302020\B_plate3_run2_10302020.D Sat Oct 31 06:34:30 2020
Start of data points
5.99338,164453
5.99963,167328
6.00588,166285
6.01215,178293
6.01840,175865
6.02465,170956
6.03092,170374
6.03717,177641
6.04342,193084
6.04968,192540
6.05593,187002
6.06218,170700
6.06845,180903
6.07470,202169
6.08095,209226
6.08722,193574
6.09347,180858
6.09972,231413
6.10598,463852
6.11223,856331
6.11848,1079277
6.12475,851345
6.13100,502858
6.13725,307490
6.14350,236571
6.14977,219347
6.15602,274267
6.16227,467385
6.16853,798108
6.17478,1020096
6.18103,908831
6.18730,592353
6.19355,370659
6.19980,271962
6.20607,242375
6.21232,217065
6.21857,211362
6.22483,207574
6.23108,221509
6.23733,211458
6.24360,198323
6.24985,191269
6.25610,170507
6.26237,168546
6.26862,167032
6.27487,165715
6.28113,176731
6.28738,183028
6.29363,184050
6.29990,175016
6.30615,214940
6.31240,351261
6.31867,617947
6.32492,1015937
6.33117,1640380
6.33743,3260708
6.34368,7082695
6.34993,1.161985E+07
6.35618,1.292882E+07
6.36245,8370839
6.36870,2704576
6.37495,646387
6.38122,278070
6.38747,228153
6.39372,219825
6.39998,226442
6.40623,275845
6.41248,381413
6.41875,569937
6.42500,778857
6.43125,980571
6.43752,1094547
6.44377,953803
6.45002,695093
6.45628,766732
6.46253,2044942
6.46878,5452186
6.47505,1.111923E+07
6.48130,1.790017E+07
6.48755,2.399719E+07
6.49382,2.957615E+07
6.50007,3.534316E+07
6.50632,4.133333E+07
6.51258,4.533949E+07
6.51883,4.702054E+07
6.52508,4.70217E+07
6.53135,4.628482E+07
6.53760,3.320924E+07
6.54385,3629707
6.55012,786980
6.55637,741861
6.56262,741617
6.56887,779290
6.57513,1126875
6.58138,2013714
6.58763,2738015
6.59390,2339272
6.60015,1232678
6.60640,560447
6.61267,368727
6.61892,326745
6.62517,307654
6.63143,294211
6.63768,305146
6.64393,315283
6.65020,308803
6.65645,277785
6.66270,262362
6.66897,290153
6.67522,371725
6.68147,463988
6.68773,462538
6.69398,380317
6.70023,316328
6.70650,289068
6.71275,292403
6.71900,304150
6.72527,322670
6.73152,337957
6.73777,341691
6.74403,360210
6.75028,385574
6.75653,383855
6.76280,378179
6.76905,376700
6.77530,380493
6.78157,380328
6.78782,391808
6.79407,392764
6.80032,417711
6.80658,452071
6.81283,515304
6.81908,565165
6.82535,560354
6.83160,531554
6.83785,507955
6.84412,516797
6.85037,568526
6.85662,630098
6.86288,622447
6.86913,565349
6.87538,531258
6.88165,588779
6.88790,776865
6.89415,1024184
6.90042,1047364
6.90667,838760
6.91292,623776
6.91918,518454
6.92543,484786
6.93168,466768
6.93795,456142
6.94420,459059
6.95045,437762
6.95672,431841
6.96297,402341
6.96922,392475
6.97548,388562
6.98173,389134
6.98798,389084
6.99425,367487
7.00050,349592
7.00675,328408
7.01300,316651
7.01927,341082
7.02552,440474
7.03177,711917
7.03803,1318875
7.04428,2637104
7.05053,5128301
7.05680,7283578
7.06305,6774250
7.06930,3847943
7.07557,1480976
7.08182,490442
7.08807,260465
7.09433,210605
7.10058,198122
7.10683,177136
7.11310,172765
7.11935,159471
7.12560,148556
7.13187,152516
7.13812,169607
7.14437,210007
7.15063,277644
7.15688,367882
7.16313,365294
7.16940,265444
7.17565,186693
7.18190,143586
7.18817,132057
7.19442,129736
7.20067,129812
7.20693,149058
7.21318,168917
7.21943,163151
7.22568,145837
7.23195,142217
7.23820,143171
7.24445,166521
7.25072,197481
7.25697,282676
7.26322,492079
7.26948,722256
7.27573,804267
7.28198,688297
7.28825,430351
7.29450,262541
7.30075,196524
7.30702,177643
7.31327,166146
7.31952,154695
7.32578,146095
7.33203,133460
7.33828,132350
7.34455,130756
7.35080,124989
7.35705,129432
7.36332,121634
7.36957,122872
7.37582,116915
7.38208,122136
7.38833,133108
7.39458,157035
7.40085,165799
7.40710,161886
7.41335,159339
7.41962,206155
7.42587,304846
7.43212,409777
7.43838,432092
7.44463,379022
7.45088,270939
7.45713,199162
7.46340,169715
7.46965,175943
7.47590,189825
7.48217,194084
7.48842,192994
7.49467,206973
7.50093,224401
7.50718,249970
7.51343,265499
7.51970,241895
7.52595,185622
7.53220,146350
7.53847,131455
7.54472,131933
7.55097,211629
7.55723,662642
7.56348,2596040
7.56973,7606222
7.57600,1.610395E+07
7.58225,2.5408E+07
7.58850,3.217418E+07
7.59477,3.2574E+07
7.60102,2.146976E+07
7.60727,7292496
7.61353,2385299
7.61978,1318132
7.62603,907799
7.63230,687217
7.63855,482560
7.64480,330402
7.65107,237861
7.65732,204604
7.66357,198592
7.66982,199613
7.67608,253838
7.68233,330349
7.68858,379364
7.69485,358672
7.70110,280947
7.70735,210615
7.71362,218972
7.71987,287990
7.72612,390902
7.73238,431528
7.73863,393052
7.74488,317392
7.75115,260712
7.75740,213635
7.76365,171462
7.76992,155437
7.77617,155180
7.78242,156226
7.78868,166734
7.79493,160065
7.80118,154441
7.80745,143885
7.81370,150208
7.81995,162300
7.82622,213627
7.83247,292963
7.83872,333292
7.84498,322105
7.85123,267987
7.85748,246700
7.86375,299988
7.87000,355391
7.87625,350523
7.88252,287772
7.88877,231100
7.89502,202259
7.90127,195604
7.90753,199806
7.91378,216984
7.92003,228734
7.92630,227900
7.93255,210294
7.93880,206692
7.94507,210823
7.95132,256914
7.95757,324950
7.96383,385082
7.97008,362789
7.97633,327284
7.98260,329464
7.98885,382901
7.99510,574396
8.00137,977654
8.00762,1439304
8.01387,2033170
8.02013,2694684
8.02638,2884900
8.03263,2210054
8.03890,1363857
8.04515,1011077
8.05140,1016626
8.05767,1092552
8.06392,945909
8.07017,636204
8.07643,382784
8.08268,294012
8.08893,361683
8.09520,476599
8.10145,557517
8.10770,604670
8.11395,703556
8.12022,907704
8.12647,993587
8.13272,759974
8.13898,448236
8.14523,277572
8.15148,214229
8.15775,187194
8.16400,175226
8.17025,166277
8.17652,162293
8.18277,155182
8.18902,149163
8.19528,143898
8.20153,137956
8.20778,136989
8.21405,141143
8.22030,144720
8.22655,171305
8.23282,221238
8.23907,290662
8.24532,312599
8.25158,279015
8.25783,235082
8.26408,212138
8.27035,194955
8.27660,204801
8.28285,221441
8.28912,238282
8.29537,258522
8.30162,234782
8.30788,193369
8.31413,148224
8.32038,125931
8.32665,120596
8.33290,117101
8.33915,128414
8.34540,130641
8.35167,124512
8.35792,131668
8.36417,133018
8.37043,142958
8.37668,134822
8.38293,128934
8.38920,129841
8.39545,143677
8.40170,219745
8.40797,352019
8.41422,463950
8.42047,456140
8.42673,333361
8.43298,230321
8.43923,178117
8.44550,177523
8.45175,182723
8.45800,188761
8.46427,172742
8.47052,160205
8.47677,153275
8.48303,158531
8.48928,157425
8.49553,158979
8.50180,167551
8.50805,175339
8.51430,178444
8.52057,172271
8.52682,146696
8.53307,126489
8.53933,118861
8.54558,115879
8.55183,119602
8.55808,161484
8.56435,249516
8.57060,405398
8.57685,659363
8.58312,1008971
8.58937,1416790
8.59562,1775363
8.60188,1705667
8.60813,1777153
8.61438,3209311
8.62065,7338521
8.62690,1.378994E+07
8.63315,1.733737E+07
8.63942,1.504122E+07
8.64567,8091896
8.65192,2441589
8.65818,597117
8.66443,269958
8.67068,226697
8.67695,210485
8.68320,209912
8.68945,213203
8.69572,227313
8.70197,235786
8.70822,238107
8.71448,257653
8.72073,264263
8.72698,246146
8.73325,211809
8.73950,197756
8.74575,200954
8.75202,215817
8.75827,200771
8.76452,155868
8.77078,138680
8.77703,124237
8.78328,122541
8.78953,118064
8.79580,111186
8.80205,104444
8.80830,110393
8.81457,117123
8.82082,118790
8.82707,163208
8.83333,362235
8.83958,1024671
8.84583,2559392
8.85210,4873767
8.85835,7475095
8.86460,8775318
8.87087,8014815
8.87712,6628155
8.88337,6235909
8.88963,6287841
8.89588,4639423
8.90213,1963622
8.90840,671375
8.91465,326629
8.92090,220204
8.92717,170081
8.93342,154115
8.93967,157463
8.94593,153343
8.95218,162156
8.95843,195439
8.96470,236514
8.97095,272967
8.97720,309985
8.98347,311295
8.98972,341050
8.99597,470997
9.00222,600701
9.00848,813409
9.01473,869435
9.02098,737646
9.02725,549998
9.03350,524275
9.03975,878994
9.04602,1397261
9.05227,1473934
9.05852,1057731
9.06478,582845
9.07103,320086
9.07728,200029
9.08355,175608
9.08980,168421
9.09605,178226
9.10232,188036
9.10857,174217
9.11482,173410
9.12108,142428
9.12733,157167
9.13358,160692
9.13985,195355
9.14610,208976
9.15235,199449
9.15862,212008
9.16487,256025
9.17112,282703
9.17738,286806
9.18363,303766
9.18988,363772
9.19615,406070
9.20240,365404
9.20865,267396
9.21490,178952
9.22117,130506
9.22742,116856
9.23367,128552
9.23993,174911
9.24618,234660
9.25243,267151
9.25870,241546
9.26495,174750
9.27120,120314
9.27747,96625
9.28372,92962
9.28997,108955
9.29623,143681
9.30248,199574
9.30873,268660
9.31500,329250
9.32125,381142
9.32750,420949
9.33377,436023
9.34002,556069
9.34627,834337
9.35253,1095672
9.35878,1010519
9.36503,686297
9.37130,417001
9.37755,657969
9.38380,2281452
9.39007,6252441
9.39632,1.164497E+07
9.40257,1.48178E+07
9.40883,1.290063E+07
9.41508,7186828
9.42133,2381729
9.42760,837018
9.43385,1382323
9.44010,4553543
9.44635,1.181953E+07
9.45262,2.103682E+07
9.45887,2.625689E+07
9.46512,2.315413E+07
9.47138,1.315418E+07
9.47763,4579110
9.48388,1193322
9.49015,405528
9.49640,236782
9.50265,176226
9.50892,166770
9.51517,166699
9.52142,171645
9.52768,164968
9.53393,163021
9.54018,162990
9.54645,159081
9.55270,152310
9.55895,146410
9.56522,151607
9.57147,165516
9.57772,182191
9.58398,186592
9.59023,173328
9.59648,169025
9.60275,168204
9.60900,192924
9.61525,216606
9.62152,212850
9.62777,183378
9.63402,148934
9.64028,127138
9.64653,119337
9.65278,126614
9.65903,125675
9.66530,122157
9.67155,146978
9.67780,413078
9.68407,1563268
9.69032,4735885
9.69657,9589362
9.70283,1.390355E+07
9.70908,1.355123E+07
9.71533,8134459
9.72160,3233489
9.72785,1781775
9.73410,2357352
9.74037,3065021
9.74662,2801025
9.75287,1694054
9.75913,727571
9.76538,303688
9.77163,188815
9.77790,158264
9.78415,141830
9.79040,132342
9.79667,115429
9.80292,113657
9.80917,107594
9.81543,106943
9.82168,103899
9.82793,107370
9.83420,119251
9.84045,173676
9.84670,244322
9.85297,502333
9.85922,1578227
9.86547,4719483
9.87172,1.00977E+07
9.87798,1.44535E+07
9.88423,1.413839E+07
9.89048,9340751
9.89675,4045649
9.90300,1864839
9.90925,1893376
9.91552,2082656
9.92177,1498768
9.92802,787097
9.93428,363810
9.94053,228120
9.94678,212457
9.95305,247517
9.95930,364574
9.96555,627719
9.97182,1029636
9.97807,1361902
9.98432,1574805
9.99058,1633512
9.99683,1602936
10.00308,1273230
10.00935,826910
10.01560,500490
10.02185,348064
10.02812,276662
10.03437,230814
10.04062,206214
10.04688,214996
10.05313,216108
10.05938,192302
10.06565,178829
10.07190,157662
10.07815,150023
10.08442,167333
10.09067,190642
10.09692,218603
10.10317,234963
10.10943,228427
10.11568,219384
10.12193,200519
10.12820,181521
10.13445,159636
10.14070,151489
10.14697,148756
10.15322,148389
10.15947,151754
10.16573,150210
10.17198,154774
10.17823,167079
10.18450,190146
10.19075,199615
10.19700,187041
10.20327,174316
10.20952,171701
10.21577,211488
10.22203,351084
10.22828,602116
10.23453,883911
10.24080,1030586
10.24705,1015512
10.25330,789562
10.25957,523273
10.26582,366384
10.27207,297797
10.27833,257594
10.28458,259086
10.29083,336767
10.29710,411611
10.30335,389995
10.30960,311812
10.31585,236338
10.32212,226182
10.32837,252354
10.33462,321277
10.34088,379101
10.34713,349266
10.35338,267216
10.35965,212654
10.36590,200558
10.37215,193174
10.37842,175053
10.38467,164789
10.39092,154109
10.39718,142695
10.40343,135805
10.40968,125686
10.41595,134227
10.42220,146774
10.42845,160959
10.43472,166913
10.44097,166789
10.44722,169769
10.45348,178878
10.45973,183909
10.46598,182873
10.47225,194024
10.47850,255443
10.48475,378703
10.49102,467221
10.49727,437567
10.50352,328411
10.50978,222206
10.51603,168319
10.52228,156108
10.52855,177332
10.53480,235257
10.54105,280935
10.54730,284505
10.55357,261587
10.55982,213808
10.56607,210289
10.57233,232349
10.57858,260031
10.58483,275906
10.59110,282203
10.59735,310288
10.60360,678247
10.60987,2142643
10.61612,5806992
10.62237,1.132262E+07
10.62863,1.543483E+07
10.63488,1.440962E+07
10.64113,8621818
10.64740,3204507
10.65365,886177
10.65990,314958
10.66617,228131
10.67242,227954
10.67867,243863
10.68493,243662
10.69118,212689
10.69743,187238
10.70370,162107
10.70995,158410
10.71620,164839
10.72247,177146
10.72872,195749
10.73497,199915
10.74123,207384
10.74748,201104
10.75373,189767
10.75998,183188
10.76625,176857
10.77250,191169
10.77875,196437
10.78502,195231
10.79127,187653
10.79752,188053
10.80378,195521
10.81003,256870
10.81628,372256
10.82255,460337
10.82880,427458
10.83505,318553
10.84132,223870
10.84757,190036
10.85382,188992
10.86008,204692
10.86633,210900
10.87258,208152
10.87885,203203
10.88510,196851
10.89135,199084
10.89762,214545
10.90387,231879
10.91012,240448
10.91638,226157
10.92263,206501
10.92888,210166
10.93515,203234
10.94140,191142
10.94765,171188
10.95392,176102
10.96017,267419
10.96642,720541
10.97268,2319802
10.97893,6171942
10.98518,1.311708E+07
10.99143,2.10058E+07
10.99770,2.525956E+07
11.00395,2.170675E+07
11.01020,1.180607E+07
11.01647,3559321
11.02272,804614
11.02897,316680
11.03523,291539
11.04148,322854
11.04773,337521
11.05400,371215
11.06025,419116
11.06650,421534
11.07277,363194
11.07902,270474
11.08527,204687
11.09153,182771
11.09778,192139
11.10403,204130
11.11030,212286
11.11655,211241
11.12280,230010
11.12907,244843
11.13532,263248
11.14157,259280
11.14783,277677
11.15408,325607
11.16033,466659
11.16660,686464
11.17285,837722
11.17910,730214
11.18537,492105
11.19162,305355
11.19787,223725
11.20412,215265
11.21038,251008
11.21663,288016
11.22288,305468
11.22915,296122
11.23540,262884
11.24165,243577
11.24792,255433
11.25417,284484
11.26042,298421
11.26668,285358
11.27293,288649
11.27918,312689
11.28545,335537
11.29170,324201
11.29795,268221
11.30422,224652
11.31047,216256
11.31672,284964
11.32298,455988
11.32923,692840
11.33548,815354
11.34175,716722
11.34800,451499
11.35425,254391
11.36052,180571
11.36677,169873
11.37302,173645
11.37928,173202
11.38553,157431
11.39178,152669
11.39805,163337
11.40430,172083
11.41055,170138
11.41682,179020
11.42307,178721
11.42932,185698
11.43557,234662
11.44183,373890
11.44808,601297
11.45433,788716
11.46060,778044
11.46685,572694
11.47310,374195
11.47937,256786
11.48562,228226
11.49187,221257
11.49813,205743
11.50438,185978
11.51063,181394
11.51690,168322
11.52315,163867
11.52940,162896
11.53567,169723
11.54192,180340
11.54817,182954
11.55443,181577
11.56068,169731
11.56693,153897
11.57320,150286
11.57945,151071
11.58570,157524
11.59197,162080
11.59822,165348
11.60447,173145
11.61073,167939
11.61698,167773
11.62323,171869
11.62950,178326
11.63575,174280
11.64200,181271
11.64825,199285
11.65452,225887
11.66077,245330
11.66702,235430
11.67328,216439
11.67953,199323
11.68578,183337
11.69205,183690
11.69830,198760
11.70455,233767
11.71082,287663
11.71707,352975
11.72332,386439
11.72958,356542
11.73583,308655
11.74208,255679
11.74835,215910
11.75460,190731
11.76085,198678
11.76712,222433
11.77337,247282
11.77962,270557
11.78588,268123
11.79213,269587
11.79838,274791
11.80465,264731
11.81090,267491
11.81715,252766
11.82342,253357
11.82967,335791
11.83592,530417
11.84218,741838
11.84843,764858
11.85468,613051
11.86093,435767
11.86720,292485
11.87345,242938
11.87970,269540
11.88597,358970
11.89222,494164
11.89847,592720
11.90473,569791
11.91098,451938
11.91723,350188
11.92350,282406
11.92975,260354
11.93600,319337
11.94227,549558
11.94852,1218227
11.95477,2600969
11.96103,4892474
11.96728,7134986
11.97353,7276088
11.97980,4933730
11.98605,2316219
11.99230,893836
11.99857,521225
12.00482,491631
12.01107,505227
12.01733,475299
12.02358,446623
12.02983,469828
12.03610,566729
12.04235,821047
12.04860,1212874
12.05487,1575625
12.06112,1644040
12.06737,1427710
12.07363,959272
12.07988,626724
12.08613,493061
12.09238,484733
12.09865,488531
12.10490,469629
12.11115,413567
12.11742,336853
12.12367,298231
12.12992,275047
12.13618,264776
12.14243,260413
12.14868,236800
12.15495,229927
12.16120,224078
12.16745,231682
12.17372,235563
12.17997,248376
12.18622,284858
12.19248,347145
12.19873,447583
12.20498,605938
12.21125,787017
12.21750,1008711
12.22375,1104798
12.23002,1062611
12.23627,866406
12.24252,698857
12.24878,757739
12.25503,1009000
12.26128,1492990
12.26755,2057130
12.27380,2366367
12.28005,2258470
12.28632,1658363
12.29257,1026024
12.29882,559642
12.30507,336087
12.31133,262383
12.31758,216669
12.32383,200883
12.33010,202450
12.33635,224744
12.34260,274974
12.34887,329049
12.35512,375940
12.36137,389827
12.36763,364414
12.37388,333594
12.38013,344409
12.38640,409251
12.39265,487391
12.39890,488705
12.40517,392885
12.41142,314587
12.41767,279456
12.42393,273213
12.43018,308899
12.43643,361277
12.44270,379602
12.44895,354898
12.45520,322343
12.46147,306713
12.46772,309912
12.47397,405152
12.48023,623558
12.48648,1032280
12.49273,1528175
12.49900,1857590
12.50525,1613078
12.51150,1083198
12.51775,591709
12.52402,328250
12.53027,259724
12.53652,281308
12.54278,344024
12.54903,395042
12.55528,390049
12.56155,345667
12.56780,365347
12.57405,554924
12.58032,976641
12.58657,1692805
12.59282,2374003
12.59908,2645988
12.60533,2329763
12.61158,2204748
12.61785,2725483
12.62410,3854407
12.63035,5587700
12.63662,7583555
12.64287,1.024626E+07
12.64912,1.355633E+07
12.65538,1.875041E+07
12.66163,2.458337E+07
12.66788,3.022848E+07
12.67415,3.33048E+07
12.68040,3.324053E+07
12.68665,2.700512E+07
12.69292,1.281269E+07
12.69917,3001185
12.70542,817907
12.71168,618086
12.71793,740257
12.72418,869485
12.73045,924358
12.73670,967105
12.74295,1090022
12.74920,1073488
12.75547,923338
12.76172,733902
12.76797,594942
12.77423,490546
12.78048,430939
12.78673,407915
12.79300,406922
12.79925,381974
12.80550,354402
12.81177,324966
12.81802,325856
12.82427,350240
12.83053,392738
12.83678,401973
12.84303,381160
12.84930,360774
12.85555,332791
12.86180,333838
12.86807,336386
12.87432,349508
12.88057,387638
12.88683,512019
12.89308,777694
12.89933,1038086
12.90560,1159175
12.91185,1038409
12.91810,863458
12.92437,699886
12.93062,496646
12.93687,355390
12.94313,288345
12.94938,258753
12.95563,251032
12.96188,237844
12.96815,231363
12.97440,220929
12.98065,229650
12.98692,239793
12.99317,260754
12.99942,285912
13.00568,315628
13.01193,349415
13.01818,396904
13.02445,488166
13.03070,646672
13.03695,834490
13.04322,892334
13.04947,708406
13.05572,511720
13.06198,469474
13.06823,711405
13.07448,1335545
13.08075,2587714
13.08700,4023852
13.09325,4534687
13.09952,3462784
13.10577,1994655
13.11202,1014886
13.11828,592799
13.12453,438432
13.13078,386253
13.13705,362827
13.14330,369113
13.14955,356340
13.15582,336914
13.16207,325237
13.16832,311017
13.17458,287697
13.18083,261508
13.18708,239918
13.19333,228597
13.19960,221972
13.20585,221131
13.21210,224276
13.21837,236455
13.22462,257942
13.23087,284790
13.23713,317981
13.24338,338129
13.24963,336462
13.25590,332275
13.26215,348844
13.26840,374921
13.27467,361835
13.28092,343392
13.28717,336960
13.29343,386016
13.29968,502746
13.30593,695501
13.31220,900723
13.31845,950964
13.32470,724363
13.33097,473592
13.33722,326623
13.34347,301872
13.34973,314507
13.35598,332784
13.36223,330922
13.36850,303949
13.37475,276217
13.38100,258197
13.38727,242227
13.39352,233564
13.39977,225209
13.40602,227471
13.41228,232068
13.41853,251115
13.42478,279928
13.43105,324379
13.43730,371727
13.44355,407248
13.44982,394911
13.45607,351282
13.46232,300828
13.46858,267193
13.47483,259988
13.48108,256709
13.48735,263998
13.49360,267330
13.49985,269420
13.50612,273137
13.51237,275677
13.51862,305006
13.52488,329893
13.53113,346874
13.53738,386545
13.54365,497226
13.54990,745295
13.55615,1066828
13.56242,1218026
13.56867,1077687
13.57492,770973
13.58118,581852
13.58743,595771
13.59368,766937
13.59995,1074965
13.60620,1368994
13.61245,1460005
13.61870,1196219
13.62497,914706
13.63122,686613
13.63747,521180
13.64373,420721
13.64998,369970
13.65623,358589
13.66250,353068
13.66875,343379
13.67500,344150
13.68127,356833
13.68752,391571
13.69377,428903
13.70003,429837
13.70628,394295
13.71253,356067
13.71880,322304
13.72505,310401
13.73130,314852
13.73757,319911
13.74382,340512
13.75007,404711
13.75633,587453
13.76258,978123
13.76883,1378416
13.77510,1460422
13.78135,1115608
13.78760,701834
13.79387,560561
13.80012,798271
13.80637,1565548
13.81263,3031418
13.81888,5688729
13.82513,9736354
13.83140,1.566682E+07
13.83765,2.136288E+07
13.84390,2.348508E+07
13.85015,1.743493E+07
13.85642,7141205
13.86267,1879641
13.86892,557875
13.87518,365692
13.88143,465227
13.88768,834340
13.89395,1568452
13.90020,3022122
13.90645,5642276
13.91272,9156685
13.91897,1.181826E+07
13.92522,1.109655E+07
13.93148,6912338
13.93773,2662015
13.94398,802618
13.95025,332738
13.95650,248273
13.96275,241976
13.96902,241541
13.97527,242813
13.98152,245677
13.98778,251049
13.99403,254563
14.00028,277603
14.00655,314203
14.01280,356841
14.01905,378441
14.02532,347233
14.03157,272279
14.03782,227952
14.04408,198964
14.05033,203375
14.05658,214604
14.06285,238212
14.06910,267164
14.07535,308964
14.08160,307270
14.08787,275834
14.09412,253742
14.10037,231368
14.10663,212597
14.11288,197412
14.11913,201154
14.12540,207834
14.13165,212757
14.13790,206590
14.14417,192878
14.15042,190363
14.15667,190040
14.16293,192208
14.16918,192114
14.17543,183810
14.18170,174580
14.18795,172274
14.19420,175306
14.20047,186325
14.20672,212348
14.21297,261129
14.21923,358491
14.22548,499983
14.23173,607835
14.23800,595624
14.24425,494168
14.25050,345044
14.25677,267244
14.26302,298425
14.26927,458508
14.27553,719308
14.28178,900095
14.28803,807309
14.29428,570948
14.30055,378232
14.30680,309326
14.31305,292804
14.31932,342706
14.32557,459682
14.33182,528756
14.33808,491531
14.34433,392106
14.35058,308415
14.35685,267093
14.36310,244095
14.36935,235340
14.37562,244154
14.38187,259394
14.38812,280128
14.39438,340485
14.40063,512163
14.40688,960807
14.41315,2008162
14.41940,3786395
14.42565,5536537
14.43192,5536735
14.43817,4243229
14.44442,2570019
14.45068,1613041
14.45693,1196825
14.46318,1087693
14.46945,1096893
14.47570,1272238
14.48195,1404721
14.48822,1329598
14.49447,1047237
14.50072,704296
14.50697,449056
14.51323,342457
14.51948,313096
14.52573,342448
14.53200,376896
14.53825,362010
14.54450,325968
14.55077,299308
14.55702,297651
14.56327,294625
14.56953,296962
14.57578,313083
14.58203,302061
14.58830,282453
14.59455,254232
14.60080,256167
14.60707,265787
14.61332,282978
14.61957,282897
14.62583,271227
14.63208,277569
14.63833,335081
14.64460,452564
14.65085,570272
14.65710,601378
14.66337,525406
14.66962,426870
14.67587,376620
14.68213,352477
14.68838,378953
14.69463,456700
14.70090,588490
14.70715,679833
14.71340,705518
14.71967,729892
14.72592,966282
14.73217,1500969
14.73842,2261878
14.74468,2807156
14.75093,2894014
14.75718,2802793
14.76345,2802508
14.76970,2390919
14.77595,1583875
14.78222,823943
14.78847,461385
14.79472,373396
14.80098,450525
14.80723,623202
14.81348,816107
14.81975,837877
14.82600,634399
14.83225,404266
14.83852,266346
14.84477,226298
14.85102,228442
14.85728,263881
14.86353,321896
14.86978,379775
14.87605,394777
14.88230,345721
14.88855,302385
14.89482,267908
14.90107,260718
14.90732,304184
14.91358,421140
14.91983,575192
14.92608,721581
14.93235,753766
14.93860,662618
14.94485,546006
14.95110,476758
14.95737,491474
14.96362,686076
14.96987,1200540
14.97613,2001977
14.98238,2869953
14.98863,2891158
14.99490,2068223
15.00115,1095657
15.00740,560013
15.01367,379023
15.01992,324203
15.02617,288364
15.03243,295208
15.03868,294785
15.04493,327684
15.05120,359934
15.05745,385606
15.06370,392700
15.06997,380736
15.07622,366867
15.08247,358667
15.08873,384003
15.09498,434308
15.10123,475440
15.10750,525478
15.11375,563577
15.12000,650178
15.12627,769552
15.13252,927434
15.13877,1108268
15.14503,1267997
15.15128,1391216
15.15753,1655303
15.16378,2551360
15.17005,4517380
15.17630,6813767
15.18255,7543396
15.18882,5773952
15.19507,2985161
15.20132,1228239
15.20758,581335
15.21383,371062
15.22008,289499
15.22635,245075
15.23260,226801
15.23885,224989
15.24512,243887
15.25137,256966
15.25762,275132
15.26388,278751
15.27013,271831
15.27638,258357
15.28265,244643
15.28890,240053
15.29515,235762
15.30142,242492
15.30767,252270
15.31392,266137
15.32018,310443
15.32643,377962
15.33268,404122
15.33895,380432
15.34520,312544
15.35145,278661
15.35772,287905
15.36397,326710
15.37022,348261
15.37648,334630
15.38273,278879
15.38898,238550
15.39523,223980
15.40150,209653
15.40775,204025
15.41400,205268
15.42027,233718
15.42652,300974
15.43277,407126
15.43903,505848
15.44528,597681
15.45153,742434
15.45780,868212
15.46405,853686
15.47030,693634
15.47657,505586
15.48282,373958
15.48907,288083
15.49533,259246
15.50158,298303
15.50783,386190
15.51410,605436
15.52035,1171215
15.52660,2508734
15.53287,4783694
15.53912,7333486
15.54537,9787066
15.55163,1.342724E+07
15.55788,1.830402E+07
15.56413,2.091378E+07
15.57040,1.72842E+07
15.57665,8151490
15.58290,2311687
15.58917,760377
15.59542,503373
15.60167,456314
15.60792,444773
15.61418,448844
15.62043,438575
15.62668,422072
15.63295,409762
15.63920,420920
15.64545,389459
15.65172,334150
15.65797,300830
15.66422,291582
15.67048,287056
15.67673,292674
15.68298,324622
15.68925,329001
15.69550,330910
15.70175,325439
15.70802,323230
15.71427,298745
15.72052,285001
15.72678,269371
15.73303,264268
15.73928,275092
15.74555,286833
15.75180,294309
15.75805,295570
15.76432,260557
15.77057,227225
15.77682,204021
15.78308,188135
15.78933,191402
15.79558,198058
15.80185,206187
15.80810,215727
15.81435,214607
15.82060,230082
15.82687,256404
15.83312,307524
15.83937,405381
15.84563,555779
15.85188,689443
15.85813,646199
15.86440,467634
15.87065,338476
15.87690,264856
15.88317,257275
15.88942,261963
15.89567,258269
15.90193,239622
15.90818,222808
15.91443,212815
15.92070,213027
15.92695,212335
15.93320,207399
15.93947,209228
15.94572,214333
15.95197,239817
15.95823,304880
15.96448,399768
15.97073,482143
15.97700,474296
15.98325,369984
15.98950,260350
15.99577,198942
16.00202,190730
16.00827,225083
16.01453,302310
16.02078,419074
16.02703,540886
16.03330,679520
16.03955,834241
16.04580,1210784
16.05205,1669712
16.05832,1893012
16.06457,1595259
16.07082,1090346
16.07708,860725
16.08333,1067147
16.08958,1392467
16.09585,1560836
16.10210,1465938
16.10835,1321793
16.11462,1550670
16.12087,2231432
16.12712,3145957
16.13338,3319854
16.13963,2646614
16.14588,1508754
16.15215,751208
16.15840,446017
16.16465,351080
16.17092,361648
16.17717,352409
16.18342,349207
16.18968,369893
16.19593,454136
16.20218,510388
16.20845,480791
16.21470,415070
16.22095,498513
16.22722,887895
16.23347,1811637
16.23972,2846310
16.24598,3199318
16.25223,2452316
16.25848,1322151
16.26473,614196
16.27100,369124
16.27725,291401
16.28350,273233
16.28977,312227
16.29602,459446
16.30227,826031
16.30853,1330887
16.31478,1513115
16.32103,1265932
16.32730,783212
16.33355,459051
16.33980,305365
16.34607,265241
16.35232,256992
16.35857,260369
16.36483,251237
16.37108,241649
16.37733,221464
16.38360,209038
16.38985,208481
16.39610,202730
16.40237,204694
16.40862,206827
16.41487,210733
16.42113,214785
16.42738,248447
16.43363,361279
16.43990,642463
16.44615,1154513
16.45240,1496116
16.45867,1479083
16.46492,1140627
16.47117,856522
16.47743,685640
16.48368,565758
16.48993,460662
16.49618,398878
16.50245,377958
16.50870,399620
16.51495,481999
16.52122,600443
16.52747,717950
16.53372,746409
16.53998,678221
16.54623,590263
16.55248,535180
16.55875,474027
16.56500,436999
16.57125,400121
16.57752,380519
16.58377,373752
16.59002,373484
16.59628,384953
16.60253,373146
16.60878,378807
16.61505,386707
16.62130,412837
16.62755,422298
16.63382,449380
16.64007,480282
16.64632,541208
16.65258,554240
16.65883,542964
16.66508,488146
16.67135,437531
16.67760,429192
16.68385,428065
16.69012,452613
16.69637,446444
16.70262,409581
16.70887,367195
16.71513,338874
16.72138,323241
16.72763,331100
16.73390,337540
16.74015,343674
16.74640,358575
16.75267,371309
16.75892,405428
16.76517,455456
16.77143,606181
16.77768,846584
16.78393,1123886
16.79020,1404653
16.79645,1753714
16.80270,2532577
16.80897,3671981
16.81522,4985943
16.82147,6065534
16.82773,7574523
16.83398,1.007721E+07
16.84023,1.300219E+07
16.84650,1.488245E+07
16.85275,1.503411E+07
16.85900,1.20199E+07
16.86527,8347962
16.87152,5444071
16.87777,3928136
16.88403,3371204
16.89028,3076371
16.89653,2953039
16.90280,2651927
16.90905,2430262
16.91530,2373138
16.92157,2500393
16.92782,2951453
16.93407,3524915
16.94032,3851492
16.94658,3817232
16.95283,3634014
16.95908,3322392
16.96535,2959563
16.97160,2472105
16.97785,1947005
16.98412,1592454
16.99037,1358916
16.99662,1305862
17.00288,1624769
17.00913,2865233
17.01538,6007261
17.02165,1.148765E+07
17.02790,1.883725E+07
17.03415,2.64034E+07
17.04042,3.329453E+07
17.04667,3.975956E+07
17.05292,4.562906E+07
17.05918,5.031373E+07
17.06543,5.227554E+07
17.07168,5.08803E+07
17.07795,4.744729E+07
17.08420,4.454039E+07
17.09045,4.061181E+07
17.09672,3.698962E+07
17.10297,3.587476E+07
17.10922,3.526143E+07
17.11548,3.557708E+07
17.12173,4.849636E+07
17.12798,1.814698E+07
17.13425,1.45229E+07
17.14050,1.383678E+07
17.14675,1.196959E+07
17.15300,1.162248E+07
17.15927,1.736517E+07
17.16552,2.868999E+07
17.17177,4.086874E+07
17.17803,4.861857E+07
17.18428,5.151891E+07
17.19053,5.036804E+07
17.19680,3.325603E+07
17.20305,9095469
17.20930,3952760
17.21557,4370106
17.22182,5614785
17.22807,7176834
17.23433,9411970
17.24058,1.486032E+07
17.24683,2.500573E+07
17.25310,3.916007E+07
17.25935,4.957854E+07
17.26560,5.342736E+07
17.27187,5.309195E+07
17.27812,4.806728E+07
17.28437,2.4735E+07
17.29063,1.063449E+07
17.29688,1.213943E+07
17.30313,1.707128E+07
17.30940,2.00007E+07
17.31565,1.663953E+07
17.32190,9693879
17.32817,4036782
17.33442,1893337
17.34067,1323652
17.34693,1163306
17.35318,1085964
17.35943,1037387
17.36570,1008298
17.37195,964893
17.37820,937452
17.38445,950363
17.39072,992481
17.39697,1043930
17.40322,1154186
17.40948,1327055
17.41573,1478107
17.42198,1428528
17.42825,1286383
17.43450,1249246
17.44075,1510500
17.44702,2273731
17.45327,3691238
17.45952,5149659
17.46578,5656283
17.47203,4656918
17.47828,2890903
17.48455,1543323
17.49080,966094
17.49705,839388
17.50332,872769
17.50957,999719
17.51582,1202783
17.52208,1416418
17.52833,1421552
17.53458,1238478
17.54085,999793
17.54710,863673
17.55335,910178
17.55962,1235580
17.56587,2182911
17.57212,4486384
17.57838,8880897
17.58463,1.33569E+07
17.59088,1.437533E+07
17.59713,1.01872E+07
17.60340,4913312
17.60965,2113840
17.61590,1292809
17.62217,1297368
17.62842,1499991
17.63467,1448071
17.64093,1160799
17.64718,865577
17.65343,699516
17.65970,638266
17.66595,610308
17.67220,594209
17.67847,586653
17.68472,600191
17.69097,636384
17.69723,649730
17.70348,665809
17.70973,650655
17.71600,592064
17.72225,555820
17.72850,519836
17.73477,513011
17.74102,535154
17.74727,564690
17.75353,605754
17.75978,623913
17.76603,700948
17.77230,848290
17.77855,1088611
17.78480,1482607
17.79107,2037336
17.79732,2927479
17.80357,4105592
17.80982,5203880
17.81608,5466587
17.82233,4996988
17.82858,3766090
17.83485,2670342
17.84110,1901393
17.84735,1458962
17.85362,1259791
17.85987,1667540
17.86612,3458874
17.87238,7327392
17.87863,1.193652E+07
17.88488,1.485032E+07
17.89115,1.217566E+07
17.89740,6623637
17.90365,2732346
17.90992,1121643
17.91617,730354
17.92242,644520
17.92868,595535
17.93493,571311
17.94118,538850
17.94745,535348
17.95370,545516
17.95995,563940
17.96622,590441
17.97247,595686
17.97872,602133
17.98498,627208
17.99123,684276
17.99748,793515
18.00375,935615
18.01000,1063816
18.01625,1105580
18.02252,992787
18.02877,774257
18.03502,632610
18.04127,578791
18.04753,547725
18.05378,511409
18.06003,477217
18.06630,442905
18.07255,428863
18.07880,416260
18.08507,442677
18.09132,495475
18.09757,550319
18.10383,606351
18.11008,610744
18.11633,598736
18.12260,677055
18.12885,1045442
18.13510,2097231
18.14137,3804728
18.14762,5485124
18.15387,5563022
18.16013,3708145
18.16638,1867371
18.17263,887041
18.17890,567061
18.18515,472111
18.19140,434459
18.19767,412554
18.20392,410205
18.21017,450244
18.21643,522154
18.22268,576157
18.22893,560013
18.23520,501016
18.24145,441147
18.24770,420267
18.25395,408724
18.26022,430058
18.26647,474250
18.27272,558730
18.27898,655340
18.28523,828841
18.29148,1213275
18.29775,1909410
18.30400,2754898
18.31025,2912268
18.31652,2274660
18.32277,1404087
18.32902,899801
18.33528,578975
18.34153,417608
18.34778,350716
18.35405,337763
18.36030,345730
18.36655,350005
18.37282,359337
18.37907,390826
18.38532,454211
18.39158,529719
18.39783,562502
18.40408,543907
18.41035,502630
18.41660,477520
18.42285,442518
18.42912,408595
18.43537,381752
18.44162,361263
18.44788,349689
18.45413,335260
18.46038,334533
18.46663,347540
18.47290,352889
18.47915,354316
18.48540,339214
18.49167,313563
18.49792,306480
18.50417,309720
18.51043,316037
18.51668,321547
18.52293,321636
18.52920,322717
18.53545,326259
18.54170,331116
18.54797,342413
18.55422,339606
18.56047,346408
18.56673,342861
18.57298,337206
18.57923,317602
18.58550,309208
18.59175,303864
18.59800,324803
18.60427,350430
18.61052,405698
18.61677,455771
18.62303,468990
18.62928,421307
18.63553,380626
18.64180,372881
18.64805,383156
18.65430,368907
18.66057,358094
18.66682,363491
18.67307,371078
18.67933,368044
18.68558,345823
18.69183,317007
18.69808,320910
18.70435,347722
18.71060,402239
18.71685,460403
18.72312,457973
18.72937,404111
18.73562,346392
18.74188,312892
18.74813,300686
18.75438,300339
18.76065,298443
18.76690,292565
18.77315,288922
18.77942,293606
18.78567,286270
18.79192,277184
18.79818,277540
18.80443,285234
18.81068,292882
18.81695,309640
18.82320,308311
18.82945,301891
18.83572,302628
18.84197,296482
18.84822,300390
18.85448,308918
18.86073,349102
18.86698,502362
18.87325,933997
18.87950,2286124
18.88575,5563634
18.89202,1.22896E+07
18.89827,2.017969E+07
18.90452,2.441862E+07
18.91077,2.145298E+07
18.91703,1.247657E+07
18.92328,5145668
18.92953,1652804
18.93580,733918
18.94205,632683
18.94830,612171
18.95457,554156
18.96082,428882
18.96707,349545
18.97333,299243
18.97958,277417
18.98583,275614
18.99210,278185
18.99835,284282
19.00460,308928
19.01087,319330
19.01712,321092
19.02337,314847
19.02963,307913
19.03588,306592
19.04213,319798
19.04840,336643
19.05465,344826
19.06090,330420
19.06717,294686
19.07342,281721
19.07967,297500
19.08593,309581
19.09218,333295
19.09843,349735
19.10470,359071
19.11095,359457
19.11720,360588
19.12345,358003
19.12972,361531
19.13597,376448
19.14222,376787
19.14848,358770
19.15473,322069
19.16098,310685
19.16725,286736
19.17350,269214
19.17975,267320
19.18602,267792
19.19227,273423
19.19852,285899
19.20478,282483
19.21103,276963
19.21728,266969
19.22355,260593
19.22980,248998
19.23605,243252
19.24232,235583
19.24857,240897
19.25482,241222
19.26108,237279
19.26733,232191
19.27358,231529
19.27985,235025
19.28610,249396
19.29235,250572
19.29862,251383
19.30487,244803
19.31112,233481
19.31738,224546
19.32363,221539
19.32988,225502
19.33615,238290
19.34240,263583
19.34865,293225
19.35490,309386
19.36117,323733
19.36742,305539
19.37367,293256
19.37993,286646
19.38618,284789
19.39243,296914
19.39870,314040
19.40495,343466
19.41120,341715
19.41747,320709
19.42372,293090
19.42997,274520
19.43623,260858
19.44248,261478
19.44873,274602
19.45500,276780
19.46125,264123
19.46750,249731
19.47377,241493
19.48002,235995
19.48627,239797
19.49253,251312
19.49878,268986
19.50503,287436
19.51130,299733
19.51755,319593
19.52380,324000
19.53007,319818
19.53632,299085
19.54257,312699
19.54883,341906
19.55508,383719
19.56133,397155
19.56758,371884
19.57385,314093
19.58010,271698
19.58635,247466
19.59262,242395
19.59887,236714
19.60512,232710
19.61138,235905
19.61763,225938
19.62388,240764
19.63015,253540
19.63640,283856
19.64265,299345
19.64892,298602
19.65517,284608
19.66142,284604
19.66768,305371
19.67393,355015
19.68018,419241
19.68645,457663
19.69270,421840
19.69895,375851
19.70522,351307
19.71147,354794
19.71772,336967
19.72398,333755
19.73023,311110
19.73648,303084
19.74275,300251
19.74900,300144
19.75525,280579
19.76152,279518
19.76777,283069
19.77402,304968
19.78028,298758
19.78653,287686
19.79278,293921
19.79903,299155
19.80530,332528
19.81155,325288
19.81780,285894
19.82407,256819
19.83032,231605
19.83657,217018
19.84283,221062
19.84908,236280
19.85533,258745
19.86160,302457
19.86785,341909
19.87410,353532
19.88037,332655
19.88662,303449
19.89287,284630
19.89913,332536
19.90538,542472
19.91163,1347824
19.91790,3171564
19.92415,5735917
19.93040,7359211
19.93667,6103265
19.94292,3764159
19.94917,1642249
19.95543,658144
19.96168,421567
19.96793,435423
19.97420,534705
19.98045,635435
19.98670,646925
19.99297,602003
19.99922,490360
20.00547,392670
20.01172,327309
20.01798,302271
20.02423,289086
20.03048,279107
20.03675,274948
20.04300,286343
20.04925,305462
20.05552,311593
20.06177,304224
20.06802,288817
20.07428,259803
20.08053,248899
20.08678,259847
20.09305,282859
20.09930,300429
20.10555,299865
20.11182,273479
20.11807,262066
20.12432,244914
20.13058,242893
20.13683,242787
20.14308,245749
20.14935,251250
20.15560,262630
20.16185,258401
20.16812,265215
20.17437,266479
20.18062,259000
20.18688,266104
20.19313,271638
20.19938,287076
20.20565,309830
20.21190,356809
20.21815,417980
20.22442,523865
20.23067,609885
20.23692,633396
20.24317,587018
20.24943,489318
20.25568,380263
20.26193,308268
20.26820,281810
20.27445,262924
20.28070,273425
20.28697,330656
20.29322,487646
20.29947,812018
20.30573,1202659
20.31198,1419926
20.31823,1170472
20.32450,792026
20.33075,485402
20.33700,360376
20.34327,328043
20.34952,333685
20.35577,333961
20.36203,316054
20.36828,285179
20.37453,270033
20.38080,270304
20.38705,271643
20.39330,269670
20.39957,263910
20.40582,266180
20.41207,273629
20.41833,330355
20.42458,461939
20.43083,797877
20.43710,1319605
20.44335,2041493
20.44960,2370032
20.45585,1924820
20.46212,1256457
20.46837,759185
20.47462,614682
20.48088,728300
20.48713,887361
20.49338,861272
20.49965,732883
20.50590,531207
20.51215,410602
20.51842,355106
20.52467,345130
20.53092,340333
20.53718,347292
20.54343,393356
20.54968,488671
20.55595,566892
20.56220,607983
20.56845,544096
20.57472,434235
20.58097,376770
20.58722,394351
20.59348,442815
20.59973,479601
20.60598,478291
20.61225,453863
20.61850,413592
20.62475,353499
20.63102,300528
20.63727,271855
20.64352,265460
20.64978,273072
20.65603,276432
20.66228,293084
20.66855,308801
20.67480,307984
20.68105,299802
20.68730,293074
20.69357,284487
20.69982,287930
20.70607,339491
20.71233,526330
20.71858,877227
20.72483,1221219
20.73110,1410258
20.73735,1234804
20.74360,895811
20.74987,628231
20.75612,560865
20.76237,688766
20.76863,958948
20.77488,1105862
20.78113,1074658
20.78740,853309
20.79365,611547
20.79990,480269
20.80617,399216
20.81242,348614
20.81867,318795
20.82493,308270
20.83118,309998
20.83743,339506
20.84370,348509
20.84995,350081
20.85620,340681
20.86247,330259
20.86872,318867
20.87497,303770
20.88123,308535
20.88748,315639
20.89373,334149
20.89998,345745
20.90625,355444
20.91250,365470
20.91875,375900
20.92502,400111
20.93127,488797
20.93752,758322
20.94378,1184048
20.95003,1600797
20.95628,1567334
20.96255,1272078
20.96880,968886
20.97505,728773
20.98132,589553
20.98757,492670
20.99382,410976
21.00008,432073
21.00633,547970
21.01258,731909
21.01885,878298
21.02510,845208
21.03135,691520
21.03762,529732
21.04387,436218
21.05012,396069
21.05638,386494
21.06263,362956
21.06888,356501
21.07515,381568
21.08140,422652
21.08765,430012
21.09392,402243
21.10017,348330
21.10642,304861
21.11267,287047
21.11893,291091
21.12518,293340
21.13143,285525
21.13770,275302
21.14395,274766
21.15020,271432
21.15647,272764
21.16272,283125
21.16897,291934
21.17523,313736
21.18148,313807
21.18773,308463
21.19400,302315
21.20025,297927
21.20650,305762
21.21277,316308
21.21902,321979
21.22527,316208
21.23153,302139
21.23778,300954
21.24403,320846
21.25030,340707
21.25655,327426
21.26280,313279
21.26907,305027
21.27532,344456
21.28157,424467
21.28783,466820
21.29408,476241
21.30033,411603
21.30660,349874
21.31285,306126
21.31910,306589
21.32537,339010
21.33162,360946
21.33787,367303
21.34412,342998
21.35038,328357
21.35663,343856
21.36288,404427
21.36915,469175
21.37540,522881
21.38165,495445
21.38792,429356
21.39417,347550
21.40042,311857
21.40668,306451
21.41293,336262
21.41918,387870
21.42545,461467
21.43170,515953
21.43795,500542
21.44422,456537
21.45047,433429
21.45672,507465
21.46298,635651
21.46923,733505
21.47548,706653
21.48175,572526
21.48800,453662
21.49425,412095
21.50052,397385
21.50677,376459
21.51302,359536
21.51928,319770
21.52553,279634
21.53178,264641
21.53805,258002
21.54430,265883
21.55055,257032
21.55680,248624
21.56307,249527
21.56932,273477
21.57557,305158
21.58183,324736
21.58808,329489
21.59433,350586
21.60060,373360
21.60685,361710
21.61310,310610
21.61937,279779
21.62562,243664
21.63187,225734
21.63813,217002
21.64438,206143
21.65063,206122
21.65690,202070
21.66315,204112
21.66940,218077
21.67567,234613
21.68192,247401
21.68817,264824
21.69443,254409
21.70068,240642
21.70693,220226
21.71320,212347
21.71945,209817
21.72570,214168
21.73197,215219
21.73822,221034
21.74447,224362
21.75073,231280
21.75698,241880
21.76323,246672
21.76948,245646
21.77575,249332
21.78200,252958
21.78825,280840
21.79452,306079
21.80077,322177
21.80702,335139
21.81328,340679
21.81953,338598
21.82578,323777
21.83205,301122
21.83830,281175
21.84455,268486
21.85082,278438
21.85707,300975
21.86332,339305
21.86958,393138
21.87583,401768
21.88208,371562
21.88835,316822
21.89460,284539
21.90085,327839
21.90712,426093
21.91337,545757
21.91962,573431
21.92588,541298
21.93213,441964
21.93838,386009
21.94465,368260
21.95090,335865
21.95715,295430
21.96342,258649
21.96967,249832
21.97592,271652
21.98218,303180
21.98843,319816
21.99468,324966
22.00093,304294
22.00720,281175
22.01345,275163
22.01970,273480
22.02597,272614
22.03222,282305
22.03847,320645
22.04473,366260
22.05098,406381
22.05723,445155
22.06350,465971
22.06975,508010
22.07600,575629
22.08227,599992
22.08852,539531
22.09477,459541
22.10103,371415
22.10728,335633
22.11353,328552
22.11980,324834
22.12605,324316
22.13230,323603
22.13857,307142
22.14482,285913
22.15107,271375
22.15733,277295
22.16358,277995
22.16983,281308
22.17610,299200
22.18235,295527
22.18860,300393
22.19487,303996
22.20112,288569
22.20737,279709
22.21362,260119
22.21988,258903
22.22613,254204
22.23238,258709
22.23865,287145
22.24490,363192
22.25115,459952
22.25742,606867
22.26367,684235
22.26992,683262
22.27618,603319
22.28243,522923
22.28868,492617
22.29495,497215
22.30120,462942
22.30745,427930
22.31372,374969
22.31997,328434
22.32622,317470
22.33248,316004
22.33873,319165
22.34498,350072
22.35125,494630
22.35750,879350
22.36375,1643121
22.37002,2351245
22.37627,2462376
22.38252,1772375
22.38878,1066777
22.39503,546551
22.40128,356619
22.40755,319261
22.41380,312206
22.42005,313802
22.42632,332548
22.43257,363560
22.43882,409948
22.44507,486619
22.45133,596222
22.45758,785112
22.46383,969502
22.47010,1038109
22.47635,888854
22.48260,626672
22.48887,492614
22.49512,415539
22.50137,392104
22.50763,361937
22.51388,344131
22.52013,323524
22.52640,328634
22.53265,381622
22.53890,528743
22.54517,811418
22.55142,1048779
22.55767,1123841
22.56393,998188
22.57018,783213
22.57643,575310
22.58270,446750
22.58895,389776
22.59520,367273
22.60147,330823
22.60772,313103
22.61397,302456
22.62023,301785
22.62648,301968
22.63273,293895
22.63900,304320
22.64525,304813
22.65150,304679
22.65775,317580
22.66402,316324
22.67027,336852
22.67652,378659
22.68278,403317
22.68903,424794
22.69528,402886
22.70155,358064
22.70780,314744
22.71405,291103
22.72032,288518
22.72657,289024
22.73282,291316
22.73908,298826
22.74533,305343
22.75158,321876
22.75785,323859
22.76410,328935
22.77035,356056
22.77662,413679
22.78287,690275
22.78912,1788106
22.79538,4543469
22.80163,1.002297E+07
22.80788,1.648987E+07
22.81415,2.273688E+07
22.82040,2.275793E+07
22.82665,1.672131E+07
22.83292,7208031
22.83917,2437713
22.84542,992309
22.85168,600518
22.85793,476672
22.86418,441376
22.87045,414275
22.87670,397516
22.88295,378145
22.88920,355424
22.89547,337668
22.90172,325618
22.90797,319568
22.91423,322352
22.92048,325246
22.92673,336078
22.93300,347460
22.93925,360962
22.94550,364464
22.95177,363371
22.95802,351243
22.96427,343056
22.97053,373081
22.97678,451446
22.98303,534190
22.98930,564540
22.99555,549267
23.00180,457965
23.00807,380112
23.01432,326115
23.02057,299797
23.02683,297285
23.03308,296244
23.03933,303087
23.04560,299168
23.05185,313656
23.05810,326185
23.06437,373876
23.07062,510721
23.07687,720044
23.08313,868965
23.08938,817670
23.09563,637630
23.10188,457483
23.10815,363495
23.11440,311545
23.12065,287760
23.12692,275534
23.13317,271528
23.13942,265307
23.14568,260907
23.15193,252686
23.15818,249867
23.16445,247982
23.17070,248348
23.17695,246771
23.18322,243513
23.18947,255394
23.19572,261739
23.20198,270545
23.20823,278184
23.21448,270476
23.22075,268290
23.22700,253172
23.23325,242961
23.23952,250047
23.24577,252292
23.25202,249897
23.25828,258081
23.26453,259330
23.27078,252869
23.27705,253520
23.28330,250064
23.28955,255992
23.29582,278689
23.30207,327022
23.30832,422304
23.31458,521732
23.32083,579148
23.32708,582763
23.33333,497024
23.33960,386895
23.34585,326761
23.35210,293697
23.35837,277654
23.36462,272141
23.37087,264163
23.37713,273572
23.38338,276376
23.38963,285303
23.39590,287067
23.40215,284602
23.40840,275552
23.41467,267007
23.42092,261697
23.42717,264209
23.43343,258993
23.43968,266098
23.44593,276854
23.45220,296376
23.45845,317590
23.46470,329815
23.47097,334601
23.47722,345405
23.48347,370913
23.48973,411371
23.49598,431494
23.50223,474767
23.50850,577482
23.51475,722825
23.52100,852978
23.52727,892460
23.53352,767050
23.53977,568813
23.54602,431267
23.55228,377649
23.55853,366646
23.56478,405444
23.57105,470698
23.57730,546279
23.58355,639470
23.58982,686225
23.59607,700010
23.60232,667600
23.60858,616588
23.61483,538347
23.62108,451997
23.62735,398241
23.63360,381540
23.63985,375357
23.64612,376828
23.65237,369699
23.65862,344990
23.66488,322846
23.67113,303194
23.67738,310458
23.68365,317915
23.68990,339498
23.69615,363365
23.70242,367540
23.70867,374358
23.71492,393865
23.72118,503041
23.72743,677303
23.73368,833169
23.73995,784783
23.74620,644209
23.75245,499093
23.75870,396929
23.76497,354344
23.77122,336224
23.77747,329671
23.78373,332004
23.78998,333967
23.79623,331528
23.80250,351562
23.80875,354699
23.81500,387794
23.82127,420480
23.82752,429768
23.83377,415997
23.84003,374412
23.84628,352073
23.85253,344090
23.85880,348402
23.86505,348605
23.87130,356873
23.87757,380089
23.88382,428625
23.89007,496870
23.89633,541180
23.90258,548253
23.90883,492399
23.91510,439078
23.92135,411263
23.92760,390794
23.93387,386944
23.94012,386634
23.94637,421024
23.95263,580423
23.95888,1118162
23.96513,2576211
23.97138,5132940
23.97765,8751426
23.98390,1.328722E+07
23.99015,1.987902E+07
23.99642,2.812244E+07
24.00267,3.430799E+07
24.00892,3.554776E+07
24.01518,2.794066E+07
24.02143,1.587533E+07
24.02768,6473023
24.03395,2773905
24.04020,1577107
24.04645,1188619
24.05272,974419
24.05897,844659
24.06522,771592
24.07148,765361
24.07773,807337
24.08398,805473
24.09025,836637
24.09650,1087867
24.10275,1915563
24.10902,3677936
24.11527,6299472
24.12152,8347775
24.12778,7951334
24.13403,5799940
24.14028,3565152
24.14655,1844384
24.15280,1052636
24.15905,748466
24.16532,639883
24.17157,624292
24.17782,679882
24.18407,812653
24.19033,1076171
24.19658,1560845
24.20283,2675186
24.20910,5646942
24.21535,1.123497E+07
24.22160,2.04886E+07
24.22787,2.991834E+07
24.23412,3.734041E+07
24.24037,4.305117E+07
24.24663,4.556383E+07
24.25288,4.56906E+07
24.25913,4.506787E+07
24.26540,4.345395E+07
24.27165,4.258198E+07
24.27790,4.355102E+07
24.28417,2.677454E+07
24.29042,6391093
24.29667,3509798
24.30293,2771400
24.30918,2454349
24.31543,2226275
24.32170,2087040
24.32795,2058251
24.33420,2017526
24.34047,2091686
24.34672,2156027
24.35297,2165082
24.35923,2226913
24.36548,2234286
24.37173,2262835
24.37800,2388063
24.38425,2338386
24.39050,2235742
24.39677,2074841
24.40302,1928955
24.40927,1810761
24.41552,1707727
24.42178,1688675
24.42803,1743886
24.43428,1936214
24.44055,2186711
24.44680,2376816
24.45305,2320788
24.45932,2036389
24.46557,1647778
24.47182,1331783
24.47808,1143833
24.48433,1093631
24.49058,1032432
24.49685,1006047
24.50310,975953
24.50935,955051
24.51562,918682
24.52187,896412
24.52812,868647
24.53438,854522
24.54063,828742
24.54688,806711
24.55315,771590
24.55940,746151
24.56565,736613
24.57192,762209
24.57817,796700
24.58442,861590
24.59068,876180
24.59693,828217
24.60318,758017
24.60945,694016
24.61570,618989
24.62195,569574
24.62820,537591
24.63447,519791
24.64072,507525
24.64697,489546
24.65323,467987
24.65948,464920
24.66573,443964
24.67200,437495
24.67825,450016
24.68450,462246
24.69077,476328
24.69702,474331
24.70327,476280
24.70953,485648
24.71578,493406
24.72203,480025
24.72830,446784
24.73455,411069
24.74080,388530
24.74707,378144
24.75332,371293
24.75957,376797
24.76583,391553
24.77208,414135
24.77833,429095
24.78460,422192
24.79085,394528
24.79710,369893
24.80337,337363
24.80962,316440
24.81587,312603
24.82213,306324
24.82838,302517
24.83463,294374
24.84090,283074
24.84715,278385
24.85340,273274
24.85965,276558
24.86592,290050
24.87217,306470
24.87842,330728
24.88468,379616
24.89093,423638
24.89718,467761
24.90345,459834
24.90970,422121
24.91595,411561
24.92222,439957
24.92847,459685
24.93472,472445
24.94098,496526
24.94723,633643
24.95348,799129
24.95975,929172
24.96600,894750
24.97225,700899
24.97852,519093
24.98477,407087
24.99102,359756
24.99728,332995
25.00353,317428
25.00978,309483
25.01605,307525
25.02230,304339
25.02855,308895
25.03482,316638
25.04107,329720
25.04732,318594
25.05358,318564
25.05983,306623
25.06608,285935
25.07233,290272
25.07860,288918
25.08485,292361
25.09110,288639
25.09737,285781
25.10362,286652
25.10987,283215
25.11613,285594
25.12238,295535
25.12863,313618
25.13490,313673
25.14115,308550
25.14740,291007
25.15367,270602
25.15992,261750
25.16617,256937
25.17243,284320
25.17868,330963
25.18493,397092
25.19120,480100
25.19745,536692
25.20370,476902
25.20997,383434
25.21622,300834
25.22247,267724
25.22873,250876
25.23498,242961
25.24123,237111
25.24750,235088
25.25375,237256
25.26000,237040
25.26627,228858
25.27252,238955
25.27877,256302
25.28503,323085
25.29128,410453
25.29753,501134
25.30378,522988
25.31005,463001
25.31630,391251
25.32255,314541
25.32882,276165
25.33507,257719
25.34132,250777
25.34758,245236
25.35383,234264
25.36008,234903
25.36635,246044
25.37260,248227
25.37885,243183
25.38512,244412
25.39137,253755
25.39762,277164
25.40388,305358
25.41013,340591
25.41638,354666
25.42265,342184
25.42890,309318
25.43515,297128
25.44142,284315
25.44767,272606
25.45392,267622
25.46018,259449
25.46643,248578
25.47268,246150
25.47895,254135
25.48520,275512
25.49145,344403
25.49772,446288
25.50397,553563
25.51022,600089
25.51647,566922
25.52273,502761
25.52898,460303
25.53523,522276
25.54150,670508
25.54775,789919
25.55400,729982
25.56027,578289
25.56652,435256
25.57277,333664
25.57903,274008
25.58528,252158
25.59153,242493
25.59780,239066
25.60405,250445
25.61030,253366
25.61657,253434
25.62282,243416
25.62907,229840
25.63533,227021
25.64158,223326
25.64783,219459
25.65410,214836
25.66035,214958
25.66660,205714
25.67287,210429
25.67912,213686
25.68537,210965
25.69163,216047
25.69788,215239
25.70413,208861
25.71040,205968
25.71665,205357
25.72290,208380
25.72917,205616
25.73542,207672
25.74167,217518
25.74792,224019
25.75418,228484
25.76043,219529
25.76668,219368
25.77295,214801
25.77920,210175
25.78545,207921
25.79172,202968
25.79797,198321
25.80422,197165
25.81048,194520
25.81673,193800
25.82298,192096
25.82925,195562
25.83550,192591
25.84175,193793
25.84802,195264
25.85427,192649
25.86052,199140
25.86678,197230
25.87303,194099
25.87928,192914
25.88555,198576
25.89180,193739
25.89805,191322
25.90432,192125
25.91057,191348
25.91682,190462
25.92308,195571
25.92933,199023
25.93558,204167
25.94185,209236
25.94810,210426
25.95435,203643
25.96060,200478
25.96687,194037
25.97312,196323
25.97937,201899
25.98563,207872
25.99188,211390
25.99813,205288
26.00440,201539
26.01065,199769
26.01690,195512
26.02317,195944
26.02942,204548
26.03567,203188
26.04193,208378
26.04818,207445
26.05443,210470
26.06070,203513
26.06695,206684
26.07320,200036
26.07947,196126
26.08572,190815
26.09197,190653
26.09823,189731
26.10448,190069
26.11073,194218
26.11700,190830
26.12325,191691
26.12950,191335
26.13577,184762
26.14202,187835
26.14827,188620
26.15453,185711
26.16078,190059
26.16703,186440
26.17328,192819
26.17955,200473
26.18580,192983
26.19205,191634
26.19832,192189
26.20457,187569
26.21082,187409
26.21708,187691
26.22333,189504
26.22958,192484
26.23585,185212
26.24210,190539
26.24835,188508
26.25462,187454
26.26087,184974
26.26712,191159
26.27338,186025
26.27963,182138
26.28588,189241
26.29215,189592
26.29840,186752
26.30465,187298
26.31092,188054
26.31717,192710
26.32342,188885
26.32968,192048
26.33593,189553
26.34218,195102
26.34845,199067
26.35470,209305
26.36095,227942
26.36722,259946
26.37347,315758
26.37972,393898
26.38598,445990
26.39223,413399
26.39848,351486
26.40473,272544
26.41100,232731
26.41725,222680
26.42350,213005
26.42977,214996
26.43602,209224
26.44227,207077
26.44853,205542
26.45478,202687
26.46103,205422
26.46730,207591
26.47355,211150
26.47980,210030
26.48607,217307
26.49232,214960
26.49857,209115
26.50483,212529
26.51108,208611
26.51733,210851
26.52360,223518
26.52985,236053
26.53610,250581
26.54237,258432
26.54862,248287
26.55487,230126
26.56113,216263
26.56738,206457
26.57363,211472
26.57990,202627
26.58615,208929
26.59240,209493
26.59867,214614
26.60492,224118
26.61117,234879
26.61742,249203
26.62368,257179
26.62993,247641
26.63618,233821
26.64245,224344
26.64870,220916
26.65495,232746
26.66122,263860
26.66747,302467
26.67372,325070
26.67998,336850
26.68623,322515
26.69248,312225
26.69875,313768
26.70500,347449
26.71125,346010
26.71752,327075
26.72377,287425
26.73002,257947
26.73628,241253
26.74253,236005
26.74878,245009
26.75505,283847
26.76130,376535
26.76755,475359
26.77382,535903
26.78007,538157
26.78632,480755
26.79258,417091
26.79883,401419
26.80508,389230
26.81135,371074
26.81760,351438
26.82385,378488
26.83010,499168
26.83637,673744
26.84262,803184
26.84887,849357
26.85513,700315
26.86138,507862
26.86763,381162
26.87390,339132
26.88015,361222
26.88640,427058
26.89267,523404
26.89892,666753
26.90517,1047660
26.91143,2299500
26.91768,5045405
26.92393,1.001088E+07
26.93020,1.729361E+07
26.93645,2.576399E+07
26.94270,3.171306E+07
26.94897,3.094932E+07
26.95522,1.835863E+07
26.96147,7604696
26.96773,3309418
26.97398,1987239
26.98023,1293780
26.98650,853470
26.99275,619649
26.99900,515557
27.00527,510543
27.01152,656959
27.01777,1013455
27.02403,1607068
27.03028,2143152
27.03653,2052746
27.04280,1592935
27.04905,1076859
27.05530,737912
27.06155,596838
27.06782,535702
27.07407,506854
27.08032,465609
27.08658,423490
27.09283,386206
27.09908,362981
27.10535,347620
27.11160,329935
27.11785,340812
27.12412,384400
27.13037,481684
27.13662,601740
27.14288,725449
27.14913,724024
27.15538,623268
27.16165,489939
27.16790,398779
27.17415,383141
27.18042,376892
27.18667,373672
27.19292,354675
27.19918,346775
27.20543,337657
27.21168,334026
27.21795,332241
27.22420,339944
27.23045,324600
27.23672,323595
27.24297,329875
27.24922,342139
27.25548,352110
27.26173,359520
27.26798,345256
27.27423,333758
27.28050,319101
27.28675,308967
27.29300,305539
27.29927,306238
27.30552,300736
27.31177,310043
27.31803,302931
27.32428,311992
27.33053,306367
27.33680,300378
27.34305,308325
27.34930,314732
27.35557,326621
27.36182,321528
27.36807,332752
27.37433,317107
27.38058,310781
27.38683,315034
27.39310,317980
27.39935,340017
27.40560,360511
27.41187,422732
27.41812,445675
27.42437,424206
27.43063,378897
27.43688,350056
27.44313,335011
27.44940,310497
27.45565,298628
27.46190,290489
27.46817,285904
27.47442,287495
27.48067,293943
27.48693,288124
27.49318,286554
27.49943,289354
27.50568,274778
27.51195,276321
27.51820,268827
27.52445,277477
27.53072,284643
27.53697,283976
27.54322,279414
27.54948,292135
27.55573,278726
27.56198,278052
27.56825,270433
27.57450,280133
27.58075,278080
27.58702,271743
27.59327,268555
27.59952,278643
27.60578,274020
27.61203,284394
27.61828,273959
27.62455,278447
27.63080,277134
27.63705,284828
27.64332,286144
27.64957,278895
27.65582,285562
27.66208,282220
27.66833,286521
27.67458,283761
27.68085,278725
27.68710,279889
27.69335,286376
27.69962,290466
27.70587,280481
27.71212,291504
27.71837,303797
27.72463,315427
27.73088,325730
27.73713,312976
27.74340,302238
27.74965,300645
27.75590,306209
27.76217,309755
27.76842,314034
27.77467,310722
27.78093,306603
27.78718,301193
27.79343,289080
27.79970,282987
27.80595,293227
27.81220,288159
27.81847,278493
27.82472,282898
27.83097,292384
27.83723,294245
27.84348,290568
27.84973,303986
27.85600,325355
27.86225,368458
27.86850,373548
27.87477,376666
27.88102,369850
27.88727,348738
27.89353,334124
27.89978,320967
27.90603,308755
27.91230,310178
27.91855,298702
27.92480,297870
27.93107,298129
27.93732,301461
27.94357,303221
27.94982,298751
27.95608,290777
27.96233,294986
27.96858,294262
27.97485,305660
27.98110,298976
27.98735,317186
27.99362,313538
27.99987,318602
28.00612,317831
28.01238,322616
28.01863,317345
28.02488,315408
28.03115,306714
28.03740,305838
28.04365,309631
28.04992,300783
28.05617,296570
28.06242,296758
28.06868,291171
28.07493,303575
28.08118,304758
28.08745,301679
28.09370,298007
28.09995,295567
28.10622,296616
28.11247,306830
28.11872,301928
28.12498,299901
28.13123,309686
28.13748,310648
28.14375,309168
28.15000,299344
28.15625,313316
28.16250,309210
28.16877,302068
28.17502,304138
28.18127,299077
28.18753,298256
28.19378,296995
28.20003,296876
28.20630,311160
28.21255,295256
28.21880,308951
28.22507,305314
28.23132,308609
28.23757,320127
28.24383,322291
28.25008,309567
28.25633,313224
28.26260,308645
28.26885,308438
28.27510,314572
28.28137,322497
28.28762,320334
28.29387,334999
28.30013,337330
28.30638,334588
28.31263,352447
28.31890,341891
28.32515,355217
28.33140,361207
28.33767,357014
28.34392,386247
28.35017,397177
28.35643,399308
28.36268,412021
28.36893,414436
28.37520,426263
28.38145,429073
28.38770,429503
28.39395,426912
28.40022,435387
28.40647,428857
28.41272,423609
28.41898,423238
28.42523,427343
28.43148,422811
28.43775,408975
28.44400,400005
28.45025,398585
28.45652,396000
28.46277,390966
28.46902,376412
28.47528,363242
28.48153,367295
28.48778,367887
28.49405,358944
28.50030,351194
28.50655,342036
28.51282,351558
28.51907,346906
28.52532,335625
28.53158,328436
28.53783,340697
28.54408,327195
28.55035,321947
28.55660,324502
28.56285,326162
28.56912,326504
28.57537,327166
28.58162,312688
28.58788,317079
28.59413,323478
28.60038,318864
28.60663,325164
28.61290,315321
28.61915,319305
28.62540,310323
28.63167,308233
28.63792,308088
28.64417,308320
28.65043,315552
28.65668,310416
28.66293,321311
28.66920,307376
28.67545,306892
28.68170,308157
28.68797,314348
28.69422,314343
28.70047,303562
28.70673,302822
28.71298,301025
28.71923,305986
28.72550,307515
28.73175,307183
28.73800,307122
28.74427,312554
28.75052,314166
28.75677,304003
28.76303,294957
28.76928,307196
28.77553,309181
28.78180,300486
28.78805,308791
28.79430,296745
28.80057,300023
28.80682,298794
28.81307,299396
28.81932,309735
28.82558,300172
28.83183,298170
28.83808,294919
28.84435,298698
28.85060,297933
28.85685,296949
28.86312,299351
28.86937,300335
28.87562,295287
28.88188,300917
28.88813,294641
28.89438,298542
28.90065,300658
28.90690,299871
28.91315,304610
28.91942,295662
28.92567,292886
28.93192,291554
28.93818,302139
28.94443,303578
28.95068,306384
28.95695,291748
28.96320,294078
28.96945,292106
28.97572,299798
28.98197,300951
28.98822,288259
28.99448,302457
29.00073,299001
29.00698,295325
29.01325,305253
29.01950,295178
29.02575,299972
29.03202,306429
29.03827,301256
29.04452,300677
29.05077,302014
29.05703,283705
29.06328,299722
29.06953,293429
29.07580,290566
29.08205,289336
29.08830,296052
29.09457,286687
29.10082,301547
29.10707,284853
29.11333,290443
29.11958,284641
29.12583,287104
29.13210,296728
29.13835,293842
29.14460,288117
29.15087,286207
29.15712,286234
29.16337,298174
29.16963,285736
29.17588,297918
29.18213,285863
29.18840,299288
29.19465,295567
29.20090,285623
29.20717,296559
29.21342,288204
29.21967,293273
29.22593,296662
29.23218,306033
29.23843,331097
29.24470,337152
29.25095,336864
29.25720,328005
29.26345,323933
29.26972,312153
29.27597,310612
29.28222,312715
29.28848,302132
29.29473,290037
29.30098,301247
29.30725,295119
29.31350,302355
29.31975,289751
29.32602,302534
29.33227,289391
29.33852,291970
29.34478,291418
29.35103,289969
29.35728,298558
29.36355,288047
29.36980,296530
29.37605,296641
29.38232,288670
29.38857,289816
29.39482,288580
29.40108,286942
29.40733,299490
29.41358,296964
29.41985,294578
29.42610,292249
29.43235,279471
29.43862,281908
29.44487,294616
29.45112,285602
29.45738,293071
29.46363,294870
29.46988,291789
29.47613,295134
29.48240,281401
29.48865,284799
29.49490,291829
29.50117,297048
29.50742,293839
29.51367,294915
29.51993,288660
29.52618,280998
29.53243,280321
29.53870,276923
29.54495,278620
29.55120,278302
29.55747,276706
29.56372,281227
29.56997,289744
29.57623,278559
29.58248,290153
29.58873,278617
29.59500,288074
29.60125,287020
29.60750,294216
29.61377,281327
29.62002,287746
29.62627,286496
29.63253,277938
29.63878,290889
29.64503,277043
29.65130,284320
29.65755,287022
29.66380,287762
29.67007,287285
29.67632,287763
29.68257,284808
29.68883,278327
29.69508,283234
29.70133,279538
29.70758,283659
29.71385,288082
29.72010,274643
29.72635,278871
29.73262,278681
29.73887,283236
29.74512,284657
29.75138,285492
29.75763,275503
29.76388,274241
29.77015,283813
29.77640,276943
29.78265,269995
29.78892,287675
29.79517,285596
29.80142,287912
29.80768,277680
29.81393,286203
29.82018,276837
29.82645,279738
29.83270,287572
29.83895,283856
29.84522,282896
29.85147,276341
29.85772,272596
29.86398,274262
29.87023,273287
29.87648,276240
29.88275,280442
29.88900,281065
29.89525,275128
29.90152,284625
29.90777,273762
29.91402,276702
29.92027,271828
29.92653,280825
29.93278,271919
29.93903,282151
29.94530,277090
29.95155,279423
29.95780,267200
29.96407,281461
29.97032,268708
29.97657,271549
29.98283,269118
29.98908,269725
29.99533,277405
30.00160,278449
30.00785,271864
30.01410,280036
30.02037,284885
30.02662,281449
30.03287,265943
30.03913,270829
30.04538,281362
30.05163,271281
30.05790,271907
30.06415,280134
30.07040,279043
30.07667,268139
30.08292,269259
30.08917,278565
30.09543,273978
30.10168,268900
30.10793,271907
30.11420,273048
30.12045,262811
30.12670,268163
30.13295,263600
30.13922,270932
30.14547,266771
30.15172,269503
30.15798,266203
30.16423,273350
30.17048,270659
30.17675,273275
30.18300,265208
30.18925,263620
30.19552,266210
30.20177,270937
30.20802,266006
30.21428,264597
30.22053,264062
30.22678,274954
30.23305,266181
30.23930,276654
30.24555,264466
30.25182,263660
30.25807,264359
30.26432,275523
30.27058,274622
30.27683,262101
30.28308,273870
30.28935,260958
30.29560,260895
30.30185,271178
30.30812,266119
30.31437,269918
30.32062,272231
30.32688,270641
30.33313,264971
30.33938,260540
30.34565,270569
30.35190,271108
30.35815,260280
30.36440,271277
30.37067,268721
30.37692,261554
30.38317,260490
30.38943,268418
30.39568,268759
30.40193,259245
30.40820,273022
30.41445,263009
30.42070,260504
30.42697,262756
30.43322,267034
30.43947,271024
30.44573,254318
30.45198,267061
30.45823,262004
30.46450,269519
30.47075,257028
30.47700,263774
30.48327,260631
30.48952,270388
30.49577,267633
30.50203,268530
30.50828,258826
30.51453,258650
30.52080,265539
30.52705,260008
30.53330,254381
30.53957,265184
30.54582,267913
30.55207,256745
30.55833,263647
30.56458,260744
30.57083,270247
30.57710,258261
30.58335,267126
30.58960,266218
30.59585,262938
30.60212,266558
30.60837,253087
30.61462,258426
30.62088,259484
30.62713,268252
30.63338,257826
30.63965,260327
30.64590,267699
30.65215,263496
30.65842,257646
30.66467,257124
30.67092,263306
30.67718,271403
30.68343,275582
30.68968,279810
30.69595,274369
30.70220,284248
30.70845,279864
30.71472,283960
30.72097,279733
30.72722,271841
30.73348,267575
30.73973,266624
30.74598,269719
30.75225,261091
30.75850,269300
30.76475,260553
30.77102,257037
30.77727,263376
30.78352,268314
30.78978,267673
30.79603,266685
30.80228,254173
30.80853,257064
30.81480,255690
30.82105,264790
30.82730,255575
30.83357,257406
30.83982,262371
30.84607,250227
30.85233,256676
30.85858,251507
30.86483,264655
30.87110,255006
30.87735,260067
30.88360,262086
30.88987,257618
30.89612,259516
30.90237,253497
30.90863,266151
30.91488,254476
30.92113,257397
30.92740,261116
30.93365,260098
30.93990,261841
30.94617,250579
30.95242,259350
30.95867,257810
30.96493,256382
30.97118,262840
30.97743,262625
30.98370,265960
30.98995,265262
30.99620,260529
31.00247,264786
31.00872,271681
31.01497,274018
31.02123,272350
31.02748,266224
31.03373,266689
31.03998,261204
31.04625,269260
31.05250,255558
31.05875,259725
31.06502,252850
31.07127,254800
31.07752,254512
31.08378,259585
31.09003,248669
31.09628,259539
31.10255,251805
31.10880,260719
31.11505,262100
31.12132,251211
31.12757,255007
31.13382,252481
31.14008,256943
31.14633,255959
31.15258,249587
31.15885,261080
31.16510,258784
31.17135,248276
31.17762,256786
31.18387,245077
31.19012,257979
31.19638,249160
31.20263,247896
31.20888,254988
31.21515,254673
31.22140,249479
31.22765,259326
31.23392,246734
31.24017,246061
31.24642,251674
31.25267,244437
31.25893,246444
31.26518,255607
31.27143,244513
31.27770,244792
31.28395,241304
31.29020,243895
31.29647,255632
31.30272,258901
31.30897,258152
31.31523,245295
31.32148,241156
31.32773,256412
31.33400,257832
31.34025,252798
31.34650,250246
31.35277,248742
31.35902,250141
31.36527,250273
31.37153,259768
31.37778,247451
31.38403,248689
31.39030,258633
31.39655,260012
31.40280,256705
31.40907,258748
31.41532,260339
31.42157,253022
31.42783,254596
31.43408,258666
31.44033,257412
31.44660,255904
31.45285,248872
31.45910,247322
31.46535,251035
31.47162,257707
31.47787,246286
31.48412,244219
31.49038,249303
31.49663,248224
31.50288,254090
31.50915,257903
31.51540,244888
31.52165,246764
31.52792,245821
31.53417,243553
31.54042,251637
31.54668,249678
31.55293,239683
31.55918,243004
31.56545,243592
31.57170,249094
31.57795,247274
31.58422,242016
31.59047,238957
31.59672,240716
31.60298,240850
31.60923,238706
31.61548,248860
31.62175,241534
31.62800,248997
31.63425,240780
31.64052,239383
31.64677,240218
31.65302,247109
31.65928,244289
31.66553,240788
31.67178,247442
31.67805,241418
31.68430,251546
31.69055,239256
31.69680,241222
31.70307,246149
31.70932,244104
31.71557,246839
31.72183,241989
31.72808,246942
31.73433,246219
31.74060,239179
31.74685,248341
31.75310,245809
31.75937,238372
31.76562,240015
31.77187,237225
31.77813,236950
31.78438,238465
31.79063,236069
31.79690,247640
31.80315,238364
31.80940,239940
31.81567,244379
31.82192,235154
31.82817,238235
31.83443,238269
31.84068,238045
31.84693,242772
31.85320,236912
31.85945,242153
31.86570,239137
31.87197,230653
31.87822,240266
31.88447,235202
31.89073,239745
31.89698,240461
31.90323,242015
31.90948,241652
31.91575,234476
31.92200,238079
31.92825,242718
31.93452,231920
31.94077,235050
31.94702,232432
31.95328,230223
31.95953,232162
31.96578,238122
31.97205,238346
31.97830,230964
31.98455,236170
31.99082,242402
31.99707,231152
32.00332,240828
32.00958,240116
32.01583,232856
32.02208,234256
32.02835,245502
32.03460,236831
32.04085,226981
32.04712,231394
32.05337,237737
32.05962,231041
32.06588,236905
32.07213,239270
32.07838,233245
32.08465,239100
32.09090,232793
32.09715,235244
32.10342,242735
32.10967,237971
32.11592,234165
32.12217,244006
32.12843,238911
32.13468,238496
32.14093,235818
32.14720,238937
32.15345,230442
32.15970,237432
32.16597,234241
32.17222,240859
32.17847,238563
32.18473,237867
32.19098,230832
32.19723,235818
32.20350,238017
32.20975,240555
32.21600,228986
32.22227,231569
32.22852,237181
32.23477,227673
32.24103,232121
32.24728,240988
32.25353,238954
32.25980,231935
32.26605,228664
32.27230,239780
32.27857,245185
32.28482,236321
32.29107,228183
32.29733,224896
32.30358,232000
32.30983,240464
32.31610,236469
32.32235,234061
32.32860,226555
32.33487,234192
32.34112,229991
32.34737,228973
32.35362,230033
32.35988,231002
32.36613,228598
32.37238,225113
32.37865,229320
32.38490,233036
32.39115,228963
32.39742,225565
32.40367,227915
32.40992,237442
32.41618,230517
32.42243,229198
32.42868,233055
32.43495,227685
32.44120,225881
32.44745,234843
32.45372,231453
32.45997,233422
32.46622,227295
32.47248,232183
32.47873,225028
32.48498,226965
32.49125,228051
32.49750,235072
32.50375,225273
32.51002,225225
32.51627,227958
32.52252,228503
32.52878,226898
32.53503,225565
32.54128,225941
32.54755,226176
32.55380,230430
32.56005,224504
32.56630,231599
32.57257,232914
32.57882,229430
32.58507,227681
32.59133,231197
32.59758,224979
32.60383,223221
32.61010,223277
32.61635,225296
32.62260,222909
32.62887,230727
32.63512,226772
32.64137,221876
32.64763,226455
32.65388,232425
32.66013,227935
32.66640,231787
32.67265,233942
32.67890,224914
32.68517,224688
32.69142,229020
32.69767,223192
32.70393,222157
32.71018,225830
32.71643,225093
32.72270,227352
32.72895,231170
32.73520,220122
32.74147,222047
32.74772,232361
32.75397,222908
32.76023,229040
32.76648,219985
32.77273,225726
32.77898,229876
32.78525,223529
32.79150,227222
32.79775,226902
32.80402,218692
32.81027,233925
32.81652,219786
32.82278,223216
32.82903,225502
32.83528,220678
32.84155,217356
32.84780,221675
32.85405,221361
32.86032,220894
32.86657,222784
32.87282,220094
32.87908,218153
32.88533,230260
32.89158,221919
32.89785,224765
32.90410,228400
32.91035,219841
32.91662,225035
32.92287,228286
32.92912,224946
32.93538,222855
32.94163,219171
32.94788,222919
32.95415,217812
32.96040,218218
32.96665,226445
32.97292,218126
32.97917,226114
32.98542,218941
32.99168,219965
32.99793,226486
33.00418,213733
33.01043,228244
33.01670,221996
33.02295,218730
33.02920,225373
33.03547,223766
33.04172,219121
33.04797,222806
33.05423,217984
33.06048,224371
33.06673,224250
33.07300,214975
33.07925,217612
33.08550,219101
33.09177,225775
33.09802,218930
33.10427,217811
33.11053,218462
33.11678,217722
33.12303,219047
33.12930,216797
33.13555,222042
33.14180,221846
33.14807,225043
33.15432,233917
33.16057,237702
33.16683,229048
33.17308,234519
33.17933,235297
33.18560,243578
33.19185,240646
33.19810,240228
33.20437,240333
33.21062,230593
33.21687,231993
33.22312,224781
33.22938,227780
33.23563,219958
33.24188,227981
33.24815,225108
33.25440,219715
33.26065,220391
33.26692,227613
33.27317,214829
33.27942,211465
33.28568,217980
33.29193,214794
33.29818,223050
33.30445,220657
33.31070,214473
33.31695,222788
33.32322,221652
33.32947,227125
33.33572,223332
33.34198,221311
33.34823,222857
33.35448,225940
33.36075,217088
33.36700,224172
33.37325,226049
33.37952,217558
33.38577,227135
33.39202,222186
33.39828,213941
33.40453,217636
33.41078,217118
33.41705,227793
33.42330,223493
33.42955,222203
33.43582,217503
33.44207,217415
33.44832,220116
33.45457,224104
33.46083,220429
33.46708,217100
33.47333,213466
33.47960,216060
33.48585,218900
33.49210,212791
33.49837,219520
33.50462,219721
33.51087,217355
33.51713,210354
33.52338,225268
33.52963,214229
33.53590,219131
33.54215,208736
33.54840,210438
33.55467,213872
33.56092,211009
33.56717,219500
33.57343,217971
33.57968,217586
33.58593,213335
33.59220,212029
33.59845,218721
33.60470,216517
33.61097,217081
33.61722,219744
33.62347,214347
33.62973,207076
33.63598,212517
33.64223,214689
33.64850,207322
33.65475,207327
33.66100,210158
33.66725,210266
33.67352,218544
33.67977,207451
33.68602,211932
33.69228,209510
33.69853,215986
33.70478,215809
33.71105,216661
33.71730,205716
33.72355,218103
33.72982,212503
33.73607,215244
33.74232,211524
33.74858,207862
33.75483,208038
33.76108,214315
33.76735,213386
33.77360,208534
33.77985,208998
33.78612,215723
33.79237,207069
33.79862,208872
33.80488,208376
33.81113,215292
33.81738,209927
33.82365,208219
33.82990,209582
33.83615,211885
33.84242,211862
33.84867,208083
33.85492,212073
33.86118,208060
33.86743,205240
33.87368,207494
33.87995,205757
33.88620,209039
33.89245,204966
33.89870,212555
33.90497,209611
33.91122,212276
33.91747,206372
33.92373,208187
33.92998,210655
33.93623,203975
33.94250,201703
33.94875,210902
33.95500,205118
33.96127,211469
33.96752,205960
33.97377,206222
33.98003,205866
33.98628,213318
33.99253,206571
33.99880,205676
34.00505,208757
34.01130,207093
34.01757,212687
34.02382,213394
34.03007,203271
34.03633,212084
34.04258,210662
34.04883,204882
34.05510,206404
34.06135,204397
34.06760,210033
34.07387,204032
34.08012,205182
34.08637,204946
34.09263,209773
34.09888,206783
34.10513,215812
34.11138,204537
34.11765,207625
34.12390,201850
34.13015,210649
34.13642,208434
34.14267,202946
34.14892,203156
34.15518,205250
34.16143,210181
34.16768,210832
34.17395,205304
34.18020,201087
34.18645,206920
34.19272,205177
34.19897,207063
34.20522,206968
34.21148,208584
34.21773,209984
34.22398,208691
34.23025,203708
34.23650,210207
34.24275,201513
34.24902,204824
34.25527,202928
34.26152,209267
34.26778,204634
34.27403,199931
34.28028,202024
34.28655,200781
34.29280,209673
34.29905,209901
34.30532,208871
34.31157,207025
34.31782,198733
34.32408,198975
34.33033,200947
34.33658,200696
34.34283,207438
34.34910,202235
34.35535,203599
34.36160,201455
34.36787,205692
34.37412,197347
34.38037,200894
34.38663,200296
34.39288,205239
34.39913,210206
34.40540,208253
34.41165,202397
34.41790,204494
34.42417,200692
34.43042,201230
34.43667,199418
34.44293,207590
34.44918,206480
34.45543,201545
34.46170,203333
34.46795,206813
34.47420,205943
34.48047,207144
34.48672,194703
34.49297,196306
34.49923,195754
34.50548,200126
34.51173,207651
34.51800,196441
34.52425,205687
34.53050,206073
34.53677,200042
34.54302,198042
34.54927,199776
34.55552,201360
34.56178,202224
34.56803,200885
34.57428,205330
34.58055,198803
34.58680,205225
34.59305,196443
34.59932,204832
34.60557,198627
34.61182,197955
34.61808,195976
34.62433,199211
34.63058,205139
34.63685,197023
34.64310,200242
34.64935,205324
34.65562,195834
34.66187,199862
34.66812,202688
34.67438,196606
34.68063,200265
34.68688,200404
34.69315,200348
34.69940,202681
34.70565,207389
34.71192,196800
34.71817,203195
34.72442,201651
34.73068,198718
34.73693,202642
34.74318,200787
34.74945,200764
34.75570,194556
34.76195,202617
34.76820,201794
34.77447,204556
34.78072,195760
34.78697,201498
34.79323,199850
34.79948,197309
34.80573,195061
34.81200,196062
34.81825,196213
34.82450,194449
34.83077,194889
34.83702,193387
34.84327,193663
34.84953,191508
34.85578,200193
34.86203,200918
34.86830,198641
34.87455,202954
34.88080,200756
34.88707,188212
34.89332,199947
34.89957,194298
34.90583,192020
34.91208,193348
34.91833,203446
34.92460,192937
34.93085,196771
34.93710,195473
34.94337,201382
34.94962,195437
34.95587,194792
34.96213,192231
34.96838,194390
34.97463,193104
34.98090,191818
34.98715,191916
34.99340,194571
34.99965,198870
35.00592,200219
35.01217,197470
35.01842,188845
35.02468,192509
35.03093,193079
35.03718,200182
35.04345,191578
35.04970,192119
35.05595,193453
35.06222,194140
35.06847,199437
35.07472,188884
35.08098,202446
35.08723,192371
35.09348,196565
35.09975,191895
35.10600,197767
35.11225,195833
35.11852,191974
35.12477,192926
35.13102,189825
35.13728,197797
35.14353,202207
35.14978,194690
35.15605,186541
35.16230,193136
35.16855,192251
35.17482,197346
35.18107,191559
35.18732,188674
35.19358,191903
35.19983,188885
35.20608,188602
35.21233,188184
35.21860,196612
35.22485,187230
35.23110,188917
35.23737,188251
35.24362,195539
35.24987,198023
35.25613,196332
35.26238,193698
35.26863,190937
35.27490,195714
35.28115,188714
35.28740,188036
35.29367,193993
35.29992,185650
35.30617,198659
35.31243,189852
35.31868,191229
35.32493,190484
35.33120,188276
35.33745,186841
35.34370,191035
35.34997,188255
35.35622,193813
35.36247,188832
35.36873,186394
35.37498,193793
35.38123,189177
35.38750,195145
35.39375,186956
35.40000,188255
35.40627,199727
35.41252,190494
35.41877,194877
35.42502,195568
35.43128,192551
35.43753,189073
35.44378,189312
35.45005,191946
35.45630,196837
35.46255,191575
35.46882,187121
35.47507,190080
35.48132,194818
35.48758,195836
35.49383,185394
35.50008,193860
35.50635,191982
35.51260,194046
35.51885,187500
35.52512,188492
35.53137,193218
35.53762,189790
35.54388,193850
35.55013,188223
35.55638,190962
35.56265,190663
35.56890,195879
35.57515,191642
35.58142,188654
35.58767,194862
35.59392,191669
35.60018,196715
35.60643,196304
35.61268,192192
35.61895,186823
35.62520,191599
35.63145,189300
35.63772,185861
35.64397,192402
35.65022,186098
35.65647,194477
35.66273,192328
35.66898,193509
35.67523,185133
35.68150,185638
35.68775,189571
35.69400,187606
35.70027,193462
35.70652,187598
35.71277,188571
35.71903,191478
35.72528,187457
35.73153,190532
35.73780,190813
35.74405,185081
35.75030,186113
35.75657,190633
35.76282,187477
35.76907,184054
35.77533,191512
35.78158,184439
35.78783,192205
35.79410,190062
35.80035,181571
35.80660,183473
35.81287,185396
35.81912,185072
35.82537,187210
35.83163,189121
35.83788,185097
35.84413,186147
35.85040,183990
35.85665,182642
35.86290,186021
35.86915,183336
35.87542,190805
35.88167,185371
35.88792,188289
35.89418,184445
35.90043,181923
35.90668,184403
35.91295,188370
35.91920,187637
35.92545,185631
35.93172,184147
35.93797,184252
35.94422,188666
35.95048,186153
35.95673,190079
35.96298,188394
35.96925,187076
35.97550,187018
35.98175,181324
35.98802,182334
35.99427,179668
36.00052,188047
36.00678,187136
36.01303,182371
36.01928,188621
36.02555,187837
36.03180,184270
36.03805,184504
36.04432,185188
36.05057,180624
36.05682,189746
36.06308,183110
36.06933,180625
36.07558,180693
36.08185,188692
36.08810,187306
36.09435,188844
36.10060,181636
36.10687,179669
36.11312,180248
36.11937,183521
36.12563,180270
36.13188,185064
36.13813,187600
36.14440,184680
36.15065,185364
36.15690,180830
36.16317,184330
36.16942,183091
36.17567,187772
36.18193,180143
36.18818,180673
36.19443,184621
36.20070,183642
36.20695,182078
36.21320,182559
36.21947,189999
36.22572,192682
36.23197,195982
36.23823,193786
36.24448,192636
36.25073,204455
36.25700,207142
36.26325,218947
36.26950,227642
36.27577,244492
36.28202,253527
36.28827,270141
36.29453,294926
36.30078,296594
36.30703,312790
36.31328,328302
36.31955,330147
36.32580,345392
36.33205,361402
36.33832,350877
36.34457,346307
36.35082,342374
36.35708,329459
36.36333,312141
36.36958,302490
36.37585,284627
36.38210,266852
36.38835,255249
36.39462,251060
36.40087,230661
36.40712,225693
36.41338,220324
36.41963,214356
36.42588,205931
36.43215,197906
36.43840,200573
36.44465,203558
36.45092,197353
36.45717,195757
36.46342,193700
36.46968,193825
36.47593,194566
36.48218,197114
36.48845,196168
36.49470,193599
36.50095,194171
36.50722,193396
36.51347,193251
36.51972,193748
36.52598,189222
36.53223,190974
36.53848,184910
36.54473,190209
36.55100,194659
36.55725,190163
36.56350,194810
36.56977,185801
36.57602,191907
36.58227,192322
36.58853,185733
36.59478,188003
36.60103,193165
36.60730,188337
36.61355,185195
36.61980,187258
36.62607,184608
36.63232,190441
36.63857,181355
36.64483,188832
36.65108,183662
36.65733,184978
36.66360,182218
36.66985,187070
36.67610,182319
36.68237,185457
36.68862,183847
36.69487,190307
36.70113,179616
36.70738,188859
36.71363,189601
36.71990,188949
36.72615,186445
36.73240,186397
36.73867,180484
36.74492,179801
36.75117,190553
36.75742,178287
36.76368,179409
36.76993,183183
36.77618,180808
36.78245,176481
36.78870,181336
36.79495,184710
36.80122,187393
36.80747,185906
36.81372,178570
36.81998,181382
36.82623,179495
36.83248,177272
36.83875,175981
36.84500,188734
36.85125,177020
36.85752,179338
36.86377,185469
36.87002,178364
36.87628,175974
36.88253,178796
36.88878,180398
36.89505,178998
36.90130,184057
36.90755,176470
36.91382,183935
36.92007,176829
36.92632,182729
36.93258,177667
36.93883,179176
36.94508,176115
36.95135,175979
36.95760,182118
36.96385,175948
36.97012,174264
36.97637,172726
36.98262,177862
36.98887,177678
36.99513,177206
37.00138,184746
37.00763,180912
37.01390,176442
37.02015,176779
37.02640,175565
37.03267,177087
37.03892,175201
37.04517,176322
37.05143,184079
37.05768,175577
37.06393,179045
37.07020,186798
37.07645,177772
37.08270,175055
37.08897,184704
37.09522,178206
37.10147,184139
37.10773,180926
37.11398,179959
37.12023,182870
37.12650,179644
37.13275,177815
37.13900,179581
37.14527,171461
37.15152,179970
37.15777,178723
37.16403,181896
37.17028,178592
37.17653,177350
37.18280,172042
37.18905,183759
37.19530,171377
37.20155,171492
37.20782,172367
37.21407,178839
37.22032,177606
37.22658,179827
37.23283,179109
37.23908,172740
37.24535,176164
37.25160,174167
37.25785,176501
37.26412,174923
37.27037,172456
37.27662,175000
37.28288,179481
37.28913,169520
37.29538,175301
37.30165,172514
37.30790,177846
37.31415,176205
37.32042,177482
37.32667,174212
37.33292,174082
37.33918,171328
37.34543,176346
37.35168,169526
37.35795,179099
37.36420,171433
37.37045,172913
37.37672,175799
37.38297,177858
37.38922,174884
37.39548,172547
37.40173,168764
37.40798,171310
37.41423,173865
37.42050,175549
37.42675,166129
37.43300,174855
37.43927,166894
37.44552,174601
37.45177,173201
37.45803,173857
37.46428,171319
37.47053,177208
37.47680,172196
37.48305,167575
37.48930,172016
