D:\MassHunter\GCMS\1\data\metastasis_lineages_3replicates_3runs_10302020\M_plate2_run1_10302020.D Fri Oct 30 20:00:27 2020
Start of data points
5.99357	177464
5.99983	188756
6.00608	201958
6.01233	192406
6.01860	183943
6.02485	191057
6.03110	189245
6.03737	186068
6.04362	177001
6.04987	171590
6.05613	177044
6.06238	172058
6.06863	177305
6.07490	162756
6.08115	160708
6.08740	208771
6.09367	407766
6.09992	762269
6.10617	969875
6.11243	760296
6.11868	437492
6.12493	246877
6.13120	189016
6.13745	192789
6.14370	245345
6.14995	363969
6.15622	594511
6.16247	876193
6.16872	934832
6.17498	706956
6.18123	399984
6.18748	237407
6.19375	190821
6.20000	172765
6.20625	165709
6.21252	159041
6.21877	143925
6.22502	143105
6.23128	136527
6.23753	135974
6.24378	131251
6.25005	122132
6.25630	121307
6.26255	131493
6.26882	140623
6.27507	138139
6.28132	138126
6.28758	124516
6.29383	119393
6.30008	117712
6.30635	122411
6.31260	134286
6.31885	163289
6.32512	224737
6.33137	285009
6.33762	284120
6.34388	214654
6.35013	158204
6.35638	135204
6.36263	137022
6.36890	142384
6.37515	136324
6.38140	133586
6.38767	150023
6.39392	217819
6.40017	344228
6.40643	467366
6.41268	464767
6.41893	457562
6.42520	623819
6.43145	770354
6.43770	647296
6.44397	399387
6.45022	318044
6.45647	532719
6.46273	1322487
6.46898	3407440
6.47523	8225352
6.48150	1.568089E+07
6.48775	2.187259E+07
6.49400	2.072243E+07
6.50027	1.048324E+07
6.50652	2458885
6.51277	475189
6.51903	252279
6.52528	241822
6.53153	263776
6.53780	336141
6.54405	558256
6.55030	1103895
6.55657	1825741
6.56282	1936246
6.56907	1308375
6.57533	634244
6.58158	335019
6.58783	254185
6.59408	224909
6.60035	202632
6.60660	197849
6.61285	191526
6.61912	182669
6.62537	195440
6.63162	203972
6.63788	219911
6.64413	205737
6.65038	204400
6.65665	237300
6.66290	303013
6.66915	339675
6.67542	294066
6.68167	231640
6.68792	207500
6.69418	196173
6.70043	198079
6.70668	206886
6.71295	223999
6.71920	243841
6.72545	245737
6.73172	242806
6.73797	250806
6.74422	254904
6.75048	263884
6.75673	263931
6.76298	261373
6.76925	265872
6.77550	264071
6.78175	277502
6.78802	287670
6.79427	297480
6.80052	308692
6.80677	313072
6.81303	325832
6.81928	326716
6.82553	336450
6.83180	351793
6.83805	387066
6.84430	411921
6.85057	406359
6.85682	368641
6.86307	367459
6.86933	391218
6.87558	438103
6.88183	497354
6.88810	497414
6.89435	444245
6.90060	384124
6.90687	352082
6.91312	332596
6.91937	315415
6.92563	314243
6.93188	305282
6.93813	306812
6.94440	303575
6.95065	284216
6.95690	276811
6.96317	264373
6.96942	261991
6.97567	263336
6.98193	260049
6.98818	248825
6.99443	231479
7.00070	221986
7.00695	223155
7.01320	224550
7.01945	248575
7.02572	312023
7.03197	544731
7.03822	1085558
7.04448	1823969
7.05073	2050833
7.05698	1478335
7.06325	744442
7.06950	319967
7.07575	181341
7.08202	143535
7.08827	132639
7.09452	123037
7.10078	114918
7.10703	116264
7.11328	107796
7.11955	105135
7.12580	111862
7.13205	116818
7.13832	124704
7.14457	112930
7.15082	102031
7.15708	96018
7.16333	104702
7.16958	107038
7.17585	108125
7.18210	101747
7.18835	94731
7.19462	91476
7.20087	87678
7.20712	87057
7.21338	90095
7.21963	94935
7.22588	95666
7.23215	100112
7.23840	116297
7.24465	146697
7.25090	211939
7.25717	345532
7.26342	467438
7.26967	482942
7.27593	372628
7.28218	239964
7.28843	155483
7.29470	129342
7.30095	122324
7.30720	110982
7.31347	104346
7.31972	100052
7.32597	95245
7.33223	91599
7.33848	84338
7.34473	85559
7.35100	83003
7.35725	81184
7.36350	87832
7.36977	85933
7.37602	95333
7.38227	109278
7.38853	123208
7.39478	119061
7.40103	111818
7.40730	130625
7.41355	207520
7.41980	315296
7.42607	378886
7.43232	351404
7.43857	242057
7.44483	158485
7.45108	117859
7.45733	118518
7.46358	135083
7.46985	141312
7.47610	139667
7.48235	148852
7.48862	145379
7.49487	140405
7.50112	126636
7.50738	110335
7.51363	91727
7.51988	85016
7.52615	88006
7.53240	84067
7.53865	94248
7.54492	165479
7.55117	568982
7.55742	2186459
7.56368	6193405
7.56993	1.244577E+07
7.57618	1.86817E+07
7.58245	2.107128E+07
7.58870	1.617418E+07
7.59495	6875162
7.60122	1844496
7.60747	732663
7.61372	592101
7.61998	551886
7.62623	519795
7.63248	417243
7.63875	286670
7.64500	199312
7.65125	156749
7.65752	145046
7.66377	151455
7.67002	186205
7.67627	244955
7.68253	275322
7.68878	237430
7.69503	177720
7.70130	137190
7.70755	147764
7.71380	209577
7.72007	273560
7.72632	290118
7.73257	252941
7.73883	206004
7.74508	171273
7.75133	141398
7.75760	114745
7.76385	102478
7.77010	95545
7.77637	104423
7.78262	108743
7.78887	117792
7.79513	113031
7.80138	110046
7.80763	113440
7.81390	119550
7.82015	147296
7.82640	197609
7.83267	236660
7.83892	214177
7.84517	168577
7.85143	133970
7.85768	131478
7.86393	137972
7.87020	142113
7.87645	147329
7.88270	166879
7.88897	174696
7.89522	159223
7.90147	143154
7.90772	137121
7.91398	135892
7.92023	135701
7.92648	120544
7.93275	109305
7.93900	100161
7.94525	108309
7.95152	138935
7.95777	167970
7.96402	170108
7.97028	158256
7.97653	161606
7.98278	205660
7.98905	317230
7.99530	528014
8.00155	740413
8.00782	966543
8.01407	1387841
8.02032	1784766
8.02658	1693326
8.03283	1173268
8.03908	733989
8.04535	577727
8.05160	644385
8.05785	732267
8.06412	644118
8.07037	414289
8.07662	236802
8.08288	150676
8.08913	135268
8.09538	149294
8.10165	163418
8.10790	177703
8.11415	190765
8.12040	184263
8.12667	157574
8.13292	140875
8.13917	133353
8.14543	131020
8.15168	116030
8.15793	109716
8.16420	110634
8.17045	107097
8.17670	103579
8.18297	103985
8.18922	97177
8.19547	91074
8.20173	86300
8.20798	84443
8.21423	86691
8.22050	98196
8.22675	102762
8.23300	112416
8.23927	124075
8.24552	123587
8.25177	118639
8.25803	119763
8.26428	114911
8.27053	117519
8.27680	132488
8.28305	146021
8.28930	145654
8.29557	143235
8.30182	116205
8.30807	98435
8.31433	87822
8.32058	77581
8.32683	79559
8.33310	87689
8.33935	93025
8.34560	87268
8.35185	87419
8.35812	93160
8.36437	92123
8.37062	91648
8.37688	88910
8.38313	83997
8.38938	83043
8.39565	84498
8.40190	83396
8.40815	87015
8.41442	91558
8.42067	91219
8.42692	93166
8.43318	91250
8.43943	90616
8.44568	88516
8.45195	87822
8.45820	88602
8.46445	84967
8.47072	85268
8.47697	90542
8.48322	91956
8.48948	97966
8.49573	94527
8.50198	98185
8.50825	109435
8.51450	107962
8.52075	95013
8.52702	84018
8.53327	78072
8.53952	75818
8.54578	75171
8.55203	88561
8.55828	124808
8.56453	210363
8.57080	334845
8.57705	398328
8.58330	373114
8.58957	369307
8.59582	463940
8.60207	667736
8.60833	1179439
8.61458	2974739
8.62083	6600156
8.62710	1.08996E+07
8.63335	1.202123E+07
8.63960	8459308
8.64587	3517393
8.65212	954406
8.65837	290497
8.66463	181741
8.67088	163938
8.67713	153895
8.68340	133915
8.68965	124722
8.69590	111728
8.70217	123629
8.70842	147232
8.71467	166062
8.72093	163753
8.72718	140174
8.73343	119519
8.73970	122109
8.74595	138144
8.75220	142954
8.75847	127483
8.76472	106362
8.77097	84180
8.77723	83943
8.78348	85036
8.78973	86957
8.79598	84579
8.80225	81072
8.80850	72341
8.81475	74252
8.82102	91202
8.82727	168607
8.83352	471301
8.83978	1317966
8.84603	3108674
8.85228	5899277
8.85855	8654343
8.86480	9675649
8.87105	8355074
8.87732	5633845
8.88357	2174906
8.88982	509366
8.89608	215252
8.90233	173757
8.90858	146573
8.91485	127175
8.92110	115871
8.92735	108728
8.93362	100621
8.93987	101480
8.94612	102157
8.95238	116294
8.95863	138534
8.96488	173106
8.97115	202997
8.97740	230236
8.98365	254339
8.98992	280448
8.99617	357464
9.00242	496286
9.00867	645832
9.01493	704878
9.02118	564442
9.02743	368314
9.03370	228186
9.03995	158235
9.04620	135739
9.05247	122055
9.05872	126296
9.06497	124915
9.07123	126880
9.07748	115586
9.08373	112770
9.09000	115833
9.09625	125252
9.10250	133856
9.10877	126130
9.11502	116830
9.12127	101694
9.12753	90679
9.13378	87085
9.14003	85234
9.14630	95408
9.15255	124106
9.15880	166408
9.16507	213121
9.17132	234233
9.17757	239638
9.18383	273667
9.19008	381631
9.19633	477340
9.20260	437517
9.20885	297839
9.21510	177121
9.22137	117229
9.22762	102104
9.23387	105458
9.24012	140937
9.24638	192366
9.25263	221234
9.25888	203035
9.26515	154122
9.27140	106774
9.27765	88499
9.28392	88039
9.29017	104403
9.29642	136493
9.30268	200349
9.30893	262542
9.31518	332238
9.32145	397205
9.32770	401773
9.33395	381625
9.34022	445438
9.34647	707426
9.35272	951113
9.35898	965089
9.36523	704372
9.37148	426894
9.37775	513253
9.38400	1638256
9.39025	4767077
9.39652	9175361
9.40277	1.211285E+07
9.40902	1.074039E+07
9.41528	5691190
9.42153	1921809
9.42778	712305
9.43405	1142182
9.44030	3777533
9.44655	1.009454E+07
9.45280	2.041543E+07
9.45907	3.087989E+07
9.46532	3.893353E+07
9.47157	4.274066E+07
9.47783	4.004618E+07
9.48408	2.234705E+07
9.49033	4109980
9.49660	594791
9.50285	213511
9.50910	141346
9.51537	120949
9.52162	123346
9.52787	120847
9.53413	119606
9.54038	122091
9.54663	119305
9.55290	115169
9.55915	116458
9.56540	123780
9.57167	145376
9.57792	150864
9.58417	146250
9.59043	140365
9.59668	129304
9.60293	136430
9.60920	167183
9.61545	200512
9.62170	203218
9.62797	169519
9.63422	132354
9.64047	102701
9.64673	97750
9.65298	99822
9.65923	98940
9.66548	98713
9.67175	98630
9.67800	170919
9.68425	640623
9.69052	2411526
9.69677	6219781
9.70302	1.064594E+07
9.70928	1.233877E+07
9.71553	9223656
9.72178	3928685
9.72805	1160168
9.73430	447642
9.74055	375945
9.74682	382749
9.75307	311548
9.75932	212188
9.76558	143856
9.77183	122962
9.77808	120522
9.78435	115588
9.79060	108269
9.79685	98067
9.80312	91306
9.80937	88418
9.81562	89859
9.82188	94633
9.82813	95382
9.83438	110935
9.84065	129986
9.84690	151533
9.85315	209364
9.85942	519424
9.86567	1574971
9.87192	3634849
9.87818	5725492
9.88443	5990052
9.89068	4069907
9.89693	1809842
9.90320	883560
9.90945	979198
9.91570	1168866
9.92197	973138
9.92822	557172
9.93447	262776
9.94073	150205
9.94698	129707
9.95323	147606
9.95950	210729
9.96575	355458
9.97200	600814
9.97827	812415
9.98452	890887
9.99077	831734
9.99703	706758
10.00328	545229
10.00953	382663
10.01580	252923
10.02205	187319
10.02830	155691
10.03457	133765
10.04082	119449
10.04707	119040
10.05333	113164
10.05958	109593
10.06583	99944
10.07210	93812
10.07835	95990
10.08460	99121
10.09087	116464
10.09712	138064
10.10337	151295
10.10962	142573
10.11588	125394
10.12213	114999
10.12838	100260
10.13465	90653
10.14090	90117
10.14715	85105
10.15342	90872
10.15967	88260
10.16592	90173
10.17218	90828
10.17843	94219
10.18468	102376
10.19095	109421
10.19720	104708
10.20345	96817
10.20972	90449
10.21597	99576
10.22222	132984
10.22848	206784
10.23473	308794
10.24098	371251
10.24725	402311
10.25350	338777
10.25975	257529
10.26602	204000
10.27227	177667
10.27852	146470
10.28478	126764
10.29103	128183
10.29728	146852
10.30355	148242
10.30980	132777
10.31605	117422
10.32230	106079
10.32857	102854
10.33482	104313
10.34107	103914
10.34733	103773
10.35358	94507
10.35983	95792
10.36610	105661
10.37235	107480
10.37860	103564
10.38487	93538
10.39112	85996
10.39737	84944
10.40363	75873
10.40988	69955
10.41613	68603
10.42240	80510
10.42865	86413
10.43490	98665
10.44117	100266
10.44742	104785
10.45367	108901
10.45993	116799
10.46618	118223
10.47243	114886
10.47870	142889
10.48495	210195
10.49120	290258
10.49747	295675
10.50372	231031
10.50997	157392
10.51623	111049
10.52248	99625
10.52873	115032
10.53500	153210
10.54125	195828
10.54750	209518
10.55375	184646
10.56002	150821
10.56627	128102
10.57252	124870
10.57878	131709
10.58503	141042
10.59128	143733
10.59755	143844
10.60380	226980
10.61005	665351
10.61632	2080178
10.62257	4637963
10.62882	7009703
10.63508	6975559
10.64133	4595683
10.64758	1874148
10.65385	569137
10.66010	205021
10.66635	128065
10.67262	120572
10.67887	128657
10.68512	135112
10.69138	129230
10.69763	111591
10.70388	96149
10.71015	88863
10.71640	90829
10.72265	102965
10.72892	110316
10.73517	120103
10.74142	126032
10.74768	124893
10.75393	116394
10.76018	112264
10.76643	114713
10.77270	125254
10.77895	141741
10.78520	147414
10.79147	140069
10.79772	127713
10.80397	118004
10.81023	116217
10.81648	137461
10.82273	152778
10.82900	155347
10.83525	132830
10.84150	106720
10.84777	98429
10.85402	98720
10.86027	112209
10.86653	114857
10.87278	119958
10.87903	123818
10.88530	122817
10.89155	122007
10.89780	125818
10.90407	145303
10.91032	156927
10.91657	158578
10.92283	145103
10.92908	138144
10.93533	139507
10.94160	127828
10.94785	104469
10.95410	92833
10.96037	104824
10.96662	216365
10.97287	736733
10.97913	2417500
10.98538	5886165
10.99163	1.087951E+07
10.99788	1.410176E+07
11.00415	1.249743E+07
11.01040	6908771
11.01665	2396634
11.02292	617160
11.02917	217846
11.03542	172417
11.04168	195240
11.04793	205701
11.05418	221995
11.06045	242052
11.06670	258888
11.07295	234827
11.07922	173960
11.08547	129541
11.09172	103189
11.09798	103575
11.10423	112842
11.11048	123873
11.11675	129019
11.12300	133407
11.12925	140997
11.13552	140510
11.14177	139181
11.14802	143264
11.15428	160535
11.16053	236239
11.16678	366258
11.17305	485965
11.17930	476491
11.18555	352849
11.19182	213023
11.19807	139147
11.20432	131329
11.21057	159681
11.21683	209682
11.22308	253359
11.22933	241019
11.23560	200998
11.24185	167407
11.24810	155394
11.25437	176462
11.26062	188267
11.26687	177084
11.27313	164630
11.27938	174618
11.28563	186407
11.29190	184826
11.29815	164622
11.30440	131098
11.31067	125526
11.31692	154697
11.32317	238353
11.32943	391486
11.33568	489596
11.34193	458041
11.34820	311647
11.35445	172520
11.36070	104649
11.36697	88030
11.37322	84072
11.37947	83083
11.38573	83250
11.39198	82900
11.39823	88633
11.40450	98167
11.41075	104381
11.41700	102112
11.42327	96445
11.42952	89878
11.43577	91578
11.44202	101902
11.44828	116458
11.45453	129987
11.46078	132253
11.46705	119118
11.47330	107478
11.47955	99078
11.48582	99256
11.49207	101177
11.49832	99660
11.50458	101995
11.51083	103254
11.51708	104297
11.52335	98349
11.52960	92207
11.53585	95125
11.54212	98205
11.54837	105458
11.55462	108303
11.56088	99445
11.56713	94637
11.57338	81667
11.57965	84379
11.58590	87174
11.59215	93106
11.59842	103593
11.60467	98359
11.61092	97194
11.61718	92858
11.62343	91141
11.62968	92518
11.63595	92817
11.64220	95070
11.64845	106788
11.65470	123396
11.66097	141471
11.66722	147684
11.67347	140515
11.67973	126632
11.68598	106565
11.69223	102134
11.69850	101698
11.70475	115254
11.71100	145125
11.71727	174001
11.72352	189086
11.72977	184471
11.73603	173502
11.74228	160804
11.74853	147764
11.75480	127806
11.76105	117731
11.76730	118854
11.77357	131075
11.77982	138424
11.78607	145878
11.79233	147529
11.79858	148343
11.80483	152024
11.81110	140842
11.81735	137025
11.82360	140832
11.82987	179916
11.83612	301352
11.84237	443856
11.84863	492350
11.85488	420254
11.86113	278809
11.86740	186470
11.87365	139961
11.87990	134821
11.88615	159922
11.89242	219632
11.89867	284619
11.90492	326147
11.91118	310984
11.91743	247440
11.92368	191576
11.92995	155714
11.93620	160352
11.94245	230902
11.94872	484609
11.95497	1143186
11.96122	2506085
11.96748	3996134
11.97373	4964615
11.97998	3990086
11.98625	2103409
11.99250	755224
11.99875	300684
12.00502	185251
12.01127	167725
12.01752	166049
12.02378	186883
12.03003	209593
12.03628	240816
12.04255	297880
12.04880	419463
12.05505	597292
12.06132	721026
12.06757	691980
12.07382	526141
12.08008	379681
12.08633	295645
12.09258	277063
12.09883	280799
12.10510	275461
12.11135	243367
12.11760	207137
12.12387	177977
12.13012	162251
12.13637	152023
12.14263	147369
12.14888	147531
12.15513	138027
12.16140	134290
12.16765	135826
12.17390	137366
12.18017	134494
12.18642	138509
12.19267	146590
12.19893	177588
12.20518	239947
12.21143	336621
12.21770	454467
12.22395	523932
12.23020	514256
12.23647	424231
12.24272	353781
12.24897	375503
12.25523	517208
12.26148	779223
12.26773	1033380
12.27400	1074040
12.28025	825701
12.28650	555294
12.29277	358017
12.29902	243687
12.30527	165742
12.31152	130062
12.31778	105026
12.32403	96694
12.33028	93219
12.33655	100517
12.34280	114682
12.34905	132171
12.35532	145517
12.36157	143648
12.36782	132544
12.37408	133606
12.38033	150410
12.38658	213017
12.39285	278030
12.39910	294798
12.40535	255365
12.41162	200992
12.41787	165342
12.42412	153781
12.43038	183535
12.43663	241096
12.44288	311280
12.44915	356508
12.45540	334480
12.46165	276036
12.46792	207312
12.47417	216210
12.48042	383561
12.48668	808958
12.49293	1511480
12.49918	2139245
12.50545	2209166
12.51170	1635669
12.51795	832115
12.52422	352884
12.53047	193703
12.53672	214650
12.54297	332633
12.54923	441928
12.55548	448289
12.56173	343478
12.56800	251442
12.57425	270864
12.58050	478387
12.58677	914643
12.59302	1368326
12.59927	1540780
12.60553	1347487
12.61178	1186793
12.61803	1496468
12.62430	2138809
12.63055	2960900
12.63680	3827586
12.64307	5003632
12.64932	7007321
12.65557	9743159
12.66183	1.322663E+07
12.66808	1.721186E+07
12.67433	2.081307E+07
12.68060	2.142467E+07
12.68685	1.722606E+07
12.69310	7936582
12.69937	1989649
12.70562	489903
12.71187	261114
12.71813	234333
12.72438	247317
12.73063	277157
12.73690	337027
12.74315	400763
12.74940	396587
12.75565	366784
12.76192	333453
12.76817	301831
12.77442	270452
12.78068	237568
12.78693	207453
12.79318	187688
12.79945	177231
12.80570	173266
12.81195	166404
12.81822	158065
12.82447	149349
12.83072	142725
12.83698	145651
12.84323	142258
12.84948	140584
12.85575	141456
12.86200	143273
12.86825	150803
12.87452	167070
12.88077	231317
12.88702	434921
12.89328	866763
12.89953	1291746
12.90578	1374454
12.91205	1018500
12.91830	597578
12.92455	333052
12.93082	202957
12.93707	157197
12.94332	127520
12.94958	113981
12.95583	103475
12.96208	102928
12.96833	93985
12.97460	91583
12.98085	90132
12.98710	95006
12.99337	102667
12.99962	107424
13.00587	113776
13.01213	130212
13.01838	151955
13.02463	182263
13.03090	261982
13.03715	353326
13.04340	425024
13.04967	384194
13.05592	273784
13.06217	164918
13.06843	121976
13.07468	118590
13.08093	148789
13.08720	200038
13.09345	243042
13.09970	249958
13.10597	257302
13.11222	260125
13.11847	258973
13.12473	227780
13.13098	193203
13.13723	179340
13.14350	184039
13.14975	187530
13.15600	173474
13.16227	157565
13.16852	146216
13.17477	131357
13.18103	113051
13.18728	98950
13.19353	91618
13.19978	92679
13.20605	94141
13.21230	100354
13.21855	111318
13.22482	113829
13.23107	127394
13.23732	146989
13.24358	162409
13.24983	157029
13.25608	147535
13.26235	147291
13.26860	150376
13.27485	147432
13.28112	130648
13.28737	124184
13.29362	115662
13.29988	121131
13.30613	129676
13.31238	134408
13.31865	126367
13.32490	114769
13.33115	99633
13.33742	95962
13.34367	102292
13.34992	117472
13.35618	132887
13.36243	133878
13.36868	126813
13.37495	102254
13.38120	94245
13.38745	86077
13.39372	79895
13.39997	80849
13.40622	83279
13.41247	86262
13.41873	91161
13.42498	103922
13.43123	124198
13.43750	150465
13.44375	173257
13.45000	182170
13.45627	165459
13.46252	137690
13.46877	112284
13.47503	100117
13.48128	100569
13.48753	107296
13.49380	112719
13.50005	110306
13.50630	107735
13.51257	104396
13.51882	105573
13.52507	115353
13.53133	121770
13.53758	134758
13.54383	162143
13.55010	242078
13.55635	383098
13.56260	492818
13.56887	476441
13.57512	357049
13.58137	211726
13.58763	141770
13.59388	133278
13.60013	138048
13.60640	147417
13.61265	157115
13.61890	168349
13.62515	174168
13.63142	161476
13.63767	146966
13.64392	128376
13.65018	107895
13.65643	94782
13.66268	94137
13.66895	89829
13.67520	97057
13.68145	106202
13.68772	116176
13.69397	119064
13.70022	116742
13.70648	111298
13.71273	105907
13.71898	100103
13.72525	97246
13.73150	100776
13.73775	101756
13.74402	107179
13.75027	131522
13.75652	221366
13.76278	443016
13.76903	748051
13.77528	884589
13.78155	676213
13.78780	399618
13.79405	212808
13.80032	148009
13.80657	148695
13.81282	210147
13.81908	372545
13.82533	699518
13.83158	1166142
13.83785	1391117
13.84410	1103284
13.85035	633449
13.85660	352323
13.86287	245060
13.86912	188752
13.87537	155904
13.88163	170775
13.88788	282267
13.89413	585444
13.90040	1302504
13.90665	2710821
13.91290	4844354
13.91917	6747709
13.92542	6565320
13.93167	4049170
13.93793	1694279
13.94418	509044
13.95043	184541
13.95670	117063
13.96295	112138
13.96920	106807
13.97547	100422
13.98172	103026
13.98797	102218
13.99423	117800
14.00048	128166
14.00673	160676
14.01300	203345
14.01925	223750
14.02550	204599
14.03177	160087
14.03802	124142
14.04427	104572
14.05053	102584
14.05678	112355
14.06303	126753
14.06930	161062
14.07555	189889
14.08180	202142
14.08805	174140
14.09432	137062
14.10057	115565
14.10682	103597
14.11308	96570
14.11933	109985
14.12558	114679
14.13185	122212
14.13810	110586
14.14435	102368
14.15062	91994
14.15687	87653
14.16312	96259
14.16938	96061
14.17563	92144
14.18188	89539
14.18815	85302
14.19440	87575
14.20065	95961
14.20692	97595
14.21317	104565
14.21942	121094
14.22568	156768
14.23193	188984
14.23818	194504
14.24445	160046
14.25070	122364
14.25695	97145
14.26322	94869
14.26947	99985
14.27572	101389
14.28198	110183
14.28823	118373
14.29448	130616
14.30073	150667
14.30700	157311
14.31325	154080
14.31950	152615
14.32577	172755
14.33202	211589
14.33827	214575
14.34453	198474
14.35078	172185
14.35703	158716
14.36330	139068
14.36955	130544
14.37580	129187
14.38207	128499
14.38832	141819
14.39457	153154
14.40083	176018
14.40708	207520
14.41333	218561
14.41960	220431
14.42585	214491
14.43210	194930
14.43837	173337
14.44462	166163
14.45087	184194
14.45713	252606
14.46338	361377
14.46963	491315
14.47590	665172
14.48215	853115
14.48840	923039
14.49467	769508
14.50092	514140
14.50717	300820
14.51343	183441
14.51968	142640
14.52593	131097
14.53218	135241
14.53845	137294
14.54470	135290
14.55095	130361
14.55722	130415
14.56347	141689
14.56972	154057
14.57598	167799
14.58223	169930
14.58848	156469
14.59475	139532
14.60100	127905
14.60725	131514
14.61352	144786
14.61977	145543
14.62602	143386
14.63228	136814
14.63853	146846
14.64478	189387
14.65105	247219
14.65730	288439
14.66355	282365
14.66982	226620
14.67607	193900
14.68232	171241
14.68858	160958
14.69483	171558
14.70108	200049
14.70735	229173
14.71360	262107
14.71985	311512
14.72612	470326
14.73237	825127
14.73862	1258648
14.74487	1617097
14.75113	1602164
14.75738	1233782
14.76363	844192
14.76990	544297
14.77615	321975
14.78240	192821
14.78867	159173
14.79492	207382
14.80117	440415
14.80743	954741
14.81368	1698290
14.81993	2140712
14.82620	1690858
14.83245	952862
14.83870	373235
14.84497	159433
14.85122	108890
14.85747	103779
14.86373	104920
14.86998	109624
14.87623	117376
14.88250	120244
14.88875	118152
14.89500	113754
14.90127	104938
14.90752	98642
14.91377	106925
14.92003	120169
14.92628	144617
14.93253	166296
14.93880	185977
14.94505	181087
14.95130	158997
14.95755	148807
14.96382	147015
14.97007	157811
14.97632	169199
14.98258	174856
14.98883	180673
14.99508	184789
15.00135	183198
15.00760	182795
15.01385	170904
15.02012	165067
15.02637	158553
15.03262	152722
15.03888	158845
15.04513	169337
15.05138	191699
15.05765	200904
15.06390	210257
15.07015	216278
15.07642	215652
15.08267	205135
15.08892	216421
15.09518	244921
15.10143	272934
15.10768	315704
15.11395	339466
15.12020	386241
15.12645	456297
15.13272	567194
15.13897	689515
15.14522	807642
15.15148	909974
15.15773	1005047
15.16398	1402367
15.17025	2639386
15.17650	4607062
15.18275	5790060
15.18900	4840755
15.19527	2889190
15.20152	1203824
15.20777	455697
15.21403	221668
15.22028	154039
15.22653	130232
15.23280	117817
15.23905	118562
15.24530	126240
15.25157	129109
15.25782	134829
15.26407	138711
15.27033	135078
15.27658	131245
15.28283	128842
15.28910	126277
15.29535	136337
15.30160	134977
15.30787	134120
15.31412	137699
15.32037	140643
15.32663	153533
15.33288	171066
15.33913	180401
15.34540	170126
15.35165	156691
15.35790	163897
15.36417	195451
15.37042	238785
15.37667	230118
15.38293	201392
15.38918	163137
15.39543	139932
15.40168	128403
15.40795	121736
15.41420	119500
15.42045	129491
15.42672	133258
15.43297	155352
15.43922	173933
15.44548	194927
15.45173	248067
15.45798	297377
15.46425	310456
15.47050	270697
15.47675	212505
15.48302	167297
15.48927	136984
15.49552	130953
15.50178	140928
15.50803	182614
15.51428	224586
15.52055	319715
15.52680	549398
15.53305	1011616
15.53932	1923791
15.54557	3622843
15.55182	6345680
15.55808	8814246
15.56433	9360837
15.57058	6353979
15.57685	2687883
15.58310	809031
15.58935	318040
15.59562	237391
15.60187	231155
15.60812	212360
15.61437	202888
15.62063	174029
15.62688	162144
15.63313	172038
15.63940	190603
15.64565	197275
15.65190	175210
15.65817	152789
15.66442	146551
15.67067	147052
15.67693	155627
15.68318	172036
15.68943	183484
15.69570	184918
15.70195	173281
15.70820	167382
15.71447	152108
15.72072	136710
15.72697	127052
15.73323	120654
15.73948	128176
15.74573	137005
15.75200	143892
15.75825	142085
15.76450	124482
15.77077	112540
15.77702	103071
15.78327	96606
15.78953	108152
15.79578	117848
15.80203	129949
15.80830	132649
15.81455	117245
15.82080	105002
15.82707	102713
15.83332	113926
15.83957	143255
15.84582	199053
15.85208	251208
15.85833	255112
15.86458	216729
15.87085	167060
15.87710	144147
15.88335	137550
15.88962	135332
15.89587	125616
15.90212	122161
15.90838	114237
15.91463	109226
15.92088	102334
15.92715	107320
15.93340	104126
15.93965	105137
15.94592	104942
15.95217	104838
15.95842	120483
15.96468	143805
15.97093	163178
15.97718	177654
15.98345	160273
15.98970	123208
15.99595	93938
16.00222	82913
16.00847	90029
16.01472	114803
16.02098	145776
16.02723	189685
16.03348	252390
16.03975	366375
16.04600	549844
16.05225	835005
16.05850	1046623
16.06477	974364
16.07102	738481
16.07727	602060
16.08353	713544
16.08978	908962
16.09603	937904
16.10230	788953
16.10855	653262
16.11480	667917
16.12107	846925
16.12732	990051
16.13357	940368
16.13983	716623
16.14608	481302
16.15233	309834
16.15860	219311
16.16485	201762
16.17110	218442
16.17737	217518
16.18362	205673
16.18987	214226
16.19613	269788
16.20238	342632
16.20863	336630
16.21490	263004
16.22115	177671
16.22740	116988
16.23367	98617
16.23992	97254
16.24617	102863
16.25243	119962
16.25868	140424
16.26493	163553
16.27118	165487
16.27745	151444
16.28370	121586
16.28995	101036
16.29622	91517
16.30247	86058
16.30872	86186
16.31498	87149
16.32123	89657
16.32748	94917
16.33375	103234
16.34000	114853
16.34625	124867
16.35252	130049
16.35877	127826
16.36502	123932
16.37128	118062
16.37753	109460
16.38378	101332
16.39005	100121
16.39630	100445
16.40255	103971
16.40882	110839
16.41507	114263
16.42132	113820
16.42758	128161
16.43383	173519
16.44008	322069
16.44635	652390
16.45260	1048353
16.45885	1219909
16.46512	1042041
16.47137	686571
16.47762	469107
16.48388	343826
16.49013	266672
16.49638	210719
16.50263	202989
16.50890	214597
16.51515	267997
16.52140	400234
16.52767	564675
16.53392	616428
16.54017	592095
16.54643	487185
16.55268	408687
16.55893	347102
16.56520	293080
16.57145	248056
16.57770	211783
16.58397	200512
16.59022	198486
16.59647	204500
16.60273	214833
16.60898	212301
16.61523	219868
16.62150	225938
16.62775	247722
16.63400	261440
16.64027	272904
16.64652	314743
16.65277	378397
16.65903	421742
16.66528	389581
16.67153	317270
16.67780	258114
16.68405	235897
16.69030	228267
16.69657	216999
16.70282	201219
16.70907	181413
16.71532	165215
16.72158	154471
16.72783	150943
16.73408	166478
16.74035	192485
16.74660	257347
16.75285	416692
16.75912	758917
16.76537	1478065
16.77162	3201242
16.77788	6663918
16.78413	1.146849E+07
16.79038	1.649468E+07
16.79665	1.853344E+07
16.80290	1.694017E+07
16.80915	1.212237E+07
16.81542	8105347
16.82167	6396936
16.82792	5751836
16.83418	5920480
16.84043	7297453
16.84668	9404863
16.85295	1.034519E+07
16.85920	1.051086E+07
16.86545	8322213
16.87172	6267976
16.87797	5136385
16.88422	5809039
16.89048	7817318
16.89673	1.120294E+07
16.90298	1.317137E+07
16.90925	1.319898E+07
16.91550	1.048701E+07
16.92175	6863383
16.92802	4262968
16.93427	2948337
16.94052	2732041
16.94677	2737067
16.95303	2585901
16.95928	2503066
16.96553	2597435
16.97180	2625110
16.97805	2201698
16.98430	1546172
16.99057	946430
16.99682	671604
17.00307	636968
17.00933	908668
17.01558	1841124
17.02183	4223733
17.02810	8310935
17.03435	1.467945E+07
17.04060	2.096939E+07
17.04687	2.711081E+07
17.05312	3.346489E+07
17.05937	3.984902E+07
17.06563	4.513754E+07
17.07188	4.768158E+07
17.07813	4.799595E+07
17.08440	4.631131E+07
17.09065	4.348453E+07
17.09690	4.03372E+07
17.10317	3.806158E+07
17.10942	3.713872E+07
17.11567	3.58525E+07
17.12193	3.629108E+07
17.12818	4.411541E+07
17.13443	1.100475E+07
17.14070	6626486
17.14695	6097749
17.15320	6028273
17.15945	7527738
17.16572	1.339888E+07
17.17197	2.335701E+07
17.17822	3.32829E+07
17.18448	3.956152E+07
17.19073	3.821036E+07
17.19698	2.502681E+07
17.20325	7576052
17.20950	2106478
17.21575	1718622
17.22202	2442421
17.22827	3411375
17.23452	4764376
17.24078	6991781
17.24703	1.268764E+07
17.25328	2.216092E+07
17.25955	3.433943E+07
17.26580	4.342967E+07
17.27205	4.787672E+07
17.27832	4.788474E+07
17.28457	3.969248E+07
17.29082	1.603041E+07
17.29708	6319294
17.30333	7175916
17.30958	9691765
17.31585	1.011257E+07
17.32210	7063399
17.32835	3480818
17.33462	1447387
17.34087	719095
17.34712	545741
17.35338	502950
17.35963	466334
17.36588	439331
17.37215	424147
17.37840	439655
17.38465	475626
17.39090	516459
17.39717	536557
17.40342	579418
17.40967	702123
17.41593	972710
17.42218	1268464
17.42843	1457595
17.43470	1376894
17.44095	1165608
17.44720	1204867
17.45347	1700536
17.45972	2669837
17.46597	3341408
17.47223	3133248
17.47848	2217950
17.48473	1303416
17.49100	844014
17.49725	710507
17.50350	635080
17.50977	568949
17.51602	573700
17.52227	654767
17.52853	694589
17.53478	634600
17.54103	489105
17.54730	377672
17.55355	362512
17.55980	461962
17.56607	768332
17.57232	1713620
17.57857	3859739
17.58483	6953315
17.59108	9194294
17.59733	8129506
17.60358	4946357
17.60985	1997232
17.61610	826861
17.62235	556035
17.62862	603129
17.63487	611572
17.64112	549462
17.64738	424263
17.65363	322093
17.65988	274677
17.66615	243104
17.67240	241990
17.67865	238274
17.68492	251546
17.69117	264221
17.69742	283470
17.70368	270070
17.70993	271057
17.71618	259019
17.72245	246428
17.72870	226600
17.73495	217712
17.74122	228088
17.74747	255422
17.75372	277563
17.75998	290645
17.76623	303447
17.77248	325937
17.77875	406479
17.78500	584099
17.79125	935556
17.79752	1620537
17.80377	2532849
17.81002	3252855
17.81627	3143993
17.82253	2321510
17.82878	1476241
17.83503	907643
17.84130	687257
17.84755	629799
17.85380	575958
17.86007	634168
17.86632	1091488
17.87257	2485351
17.87883	4881551
17.88508	7308646
17.89133	7427195
17.89760	4908297
17.90385	2224616
17.91010	880785
17.91637	432151
17.92262	309648
17.92887	274540
17.93513	250838
17.94138	243048
17.94763	250856
17.95390	247347
17.96015	255187
17.96640	252252
17.97267	248578
17.97892	238055
17.98517	216261
17.99143	219931
17.99768	234905
18.00393	279342
18.01020	332119
18.01645	391308
18.02270	409888
18.02897	354452
18.03522	297412
18.04147	263171
18.04772	257283
18.05398	248705
18.06023	228232
18.06648	204798
18.07275	188182
18.07900	180567
18.08525	180913
18.09152	206548
18.09777	248228
18.10402	328581
18.11028	401029
18.11653	461646
18.12278	471592
18.12905	580149
18.13530	1063253
18.14155	2354047
18.14782	4202012
18.15407	5253182
18.16032	4369063
18.16658	2445072
18.17283	933640
18.17908	400720
18.18535	246760
18.19160	200914
18.19785	186449
18.20412	188887
18.21037	193440
18.21662	211405
18.22288	228755
18.22913	243958
18.23538	239144
18.24165	217133
18.24790	195659
18.25415	194400
18.26040	198917
18.26667	206456
18.27292	227639
18.27917	272888
18.28543	341667
18.29168	482694
18.29793	808019
18.30420	1230050
18.31045	1533816
18.31670	1407146
18.32297	940315
18.32922	515580
18.33547	268228
18.34173	176552
18.34798	146731
18.35423	137176
18.36050	136080
18.36675	138497
18.37300	138514
18.37927	155918
18.38552	178755
18.39177	231053
18.39803	259505
18.40428	257172
18.41053	224656
18.41680	189377
18.42305	169006
18.42930	153244
18.43557	146650
18.44182	142313
18.44807	135693
18.45433	133138
18.46058	132748
18.46683	129406
18.47308	135949
18.47935	136189
18.48560	138043
18.49185	129092
18.49812	127855
18.50437	128027
18.51062	130387
18.51688	132426
18.52313	138409
18.52938	138650
18.53565	140656
18.54190	147638
18.54815	154907
18.55442	156422
18.56067	159744
18.56692	154787
18.57318	151980
18.57943	146844
18.58568	141671
18.59195	132929
18.59820	130985
18.60445	130443
18.61072	132883
18.61697	135290
18.62322	136101
18.62948	138257
18.63573	138469
18.64198	154432
18.64825	166594
18.65450	175142
18.66075	172453
18.66702	163906
18.67327	151975
18.67952	150418
18.68578	141291
18.69203	139707
18.69828	132473
18.70453	132774
18.71080	144576
18.71705	165939
18.72330	186466
18.72957	186382
18.73582	171589
18.74207	148657
18.74833	131292
18.75458	126509
18.76083	123737
18.76710	124020
18.77335	125344
18.77960	121124
18.78587	123026
18.79212	124066
18.79837	127060
18.80463	125953
18.81088	127359
18.81713	127970
18.82340	130642
18.82965	135383
18.83590	129813
18.84217	130639
18.84842	140076
18.85467	177284
18.86093	337434
18.86718	774791
18.87343	2203788
18.87970	4768648
18.88595	8524618
18.89220	1.263603E+07
18.89847	1.308157E+07
18.90472	1.085301E+07
18.91097	8226132
18.91722	5872432
18.92348	3119787
18.92973	1245679
18.93598	473322
18.94225	268317
18.94850	245414
18.95475	231914
18.96102	208965
18.96727	177982
18.97352	154850
18.97978	141956
18.98603	137735
18.99228	139001
18.99855	136981
19.00480	137148
19.01105	146206
19.01732	151106
19.02357	154048
19.02982	148584
19.03608	146911
19.04233	153767
19.04858	165051
19.05485	186435
19.06110	186755
19.06735	167184
19.07362	143796
19.07987	127989
19.08612	121472
19.09238	116458
19.09863	119586
19.10488	124077
19.11115	120271
19.11740	129629
19.12365	130857
19.12990	142101
19.13617	154090
19.14242	168536
19.14867	172103
19.15493	158985
19.16118	144001
19.16743	134711
19.17370	131566
19.17995	124768
19.18620	128136
19.19247	124681
19.19872	128857
19.20497	126090
19.21123	117169
19.21748	108232
19.22373	104953
19.23000	106282
19.23625	102839
19.24250	103875
19.24877	108007
19.25502	111746
19.26127	112552
19.26753	115639
19.27378	112190
19.28003	112089
19.28630	105542
19.29255	113272
19.29880	114948
19.30507	111444
19.31132	108111
19.31757	100756
19.32383	97585
19.33008	98887
19.33633	100802
19.34260	110194
19.34885	119360
19.35510	135027
19.36135	138118
19.36762	140071
19.37387	135070
19.38012	132462
19.38638	130731
19.39263	128371
19.39888	134767
19.40515	142832
19.41140	143189
19.41765	138161
19.42392	122069
19.43017	111783
19.43642	103235
19.44268	99106
19.44893	103279
19.45518	101482
19.46145	101147
19.46770	96672
19.47395	98761
19.48022	95594
19.48647	98067
19.49272	100809
19.49898	105141
19.50523	110112
19.51148	116642
19.51775	124995
19.52400	136246
19.53025	141530
19.53652	135236
19.54277	128202
19.54902	124576
19.55528	122990
19.56153	127128
19.56778	114954
19.57403	112919
19.58030	108966
19.58655	107433
19.59280	102759
19.59907	105880
19.60532	102428
19.61157	97335
19.61783	100027
19.62408	103342
19.63033	114597
19.63660	136512
19.64285	156745
19.64910	164344
19.65537	145645
19.66162	122612
19.66787	119971
19.67413	135260
19.68038	168057
19.68663	195737
19.69290	198824
19.69915	188235
19.70540	171197
19.71167	165911
19.71792	163669
19.72417	156149
19.73043	140947
19.73668	128935
19.74293	124045
19.74920	124331
19.75545	127912
19.76170	118488
19.76797	121286
19.77422	123526
19.78047	131695
19.78673	127733
19.79298	122598
19.79923	113741
19.80548	108447
19.81175	108483
19.81800	103525
19.82425	102921
19.83052	99490
19.83677	103224
19.84302	97237
19.84928	99274
19.85553	102375
19.86178	112698
19.86805	122190
19.87430	133752
19.88055	132979
19.88682	123212
19.89307	115133
19.89932	120461
19.90558	181684
19.91183	447308
19.91808	1438824
19.92435	3467145
19.93060	6125072
19.93685	7725990
19.94312	6876832
19.94937	3843101
19.95562	1471663
19.96188	494560
19.96813	222192
19.97438	168916
19.98065	164909
19.98690	166738
19.99315	156918
19.99942	139786
20.00567	126593
20.01192	120894
20.01817	111614
20.02443	109248
20.03068	104086
20.03693	103708
20.04320	103227
20.04945	108816
20.05570	108821
20.06197	106487
20.06822	104887
20.07447	101475
20.08073	100975
20.08698	106981
20.09323	119073
20.09950	127606
20.10575	132856
20.11200	127593
20.11827	116401
20.12452	105624
20.13077	102290
20.13703	100159
20.14328	94793
20.14953	95967
20.15580	102633
20.16205	105212
20.16830	108010
20.17457	107919
20.18082	103508
20.18707	105550
20.19333	108546
20.19958	108861
20.20583	107909
20.21210	109012
20.21835	119059
20.22460	124146
20.23087	139132
20.23712	153333
20.24337	163011
20.24962	153463
20.25588	142777
20.26213	124939
20.26838	120842
20.27465	116781
20.28090	119976
20.28715	132868
20.29342	155102
20.29967	229780
20.30592	364384
20.31218	477598
20.31843	511875
20.32468	401463
20.33095	270466
20.33720	176263
20.34345	144106
20.34972	132958
20.35597	135419
20.36222	126235
20.36848	120393
20.37473	120723
20.38098	115136
20.38725	116945
20.39350	114874
20.39975	116593
20.40602	110641
20.41227	110989
20.41852	110987
20.42478	125466
20.43103	184208
20.43728	326293
20.44355	570497
20.44980	800693
20.45605	871901
20.46230	672621
20.46857	429025
20.47482	281844
20.48107	251016
20.48733	287491
20.49358	339687
20.49983	333925
20.50610	285470
20.51235	205858
20.51860	162704
20.52487	147045
20.53112	142464
20.53737	137677
20.54363	141095
20.54988	144500
20.55613	157786
20.56240	166430
20.56865	170864
20.57490	169650
20.58117	192503
20.58742	274091
20.59367	417294
20.59993	573000
20.60618	550369
20.61243	416636
20.61870	266762
20.62495	184411
20.63120	149085
20.63747	145865
20.64372	147772
20.64997	145890
20.65623	139777
20.66248	129947
20.66873	127657
20.67500	129320
20.68125	124916
20.68750	126635
20.69375	119610
20.70002	115283
20.70627	119285
20.71252	142793
20.71878	203372
20.72503	325102
20.73128	458316
20.73755	500905
20.74380	432106
20.75005	296577
20.75632	224276
20.76257	231446
20.76882	309085
20.77508	437315
20.78133	496492
20.78758	452991
20.79385	325207
20.80010	226076
20.80635	162243
20.81262	148282
20.81887	137287
20.82512	131274
20.83138	126405
20.83763	121889
20.84388	120145
20.85015	118279
20.85640	123144
20.86265	122953
20.86892	122170
20.87517	121529
20.88142	119381
20.88768	118342
20.89393	115668
20.90018	110507
20.90643	111540
20.91270	115362
20.91895	114927
20.92520	115312
20.93147	137563
20.93772	194352
20.94397	335170
20.95023	582409
20.95648	753856
20.96273	733799
20.96900	527792
20.97525	350515
20.98150	267852
20.98777	217360
20.99402	184308
21.00027	151894
21.00653	140389
21.01278	139640
21.01903	141697
21.02530	150602
21.03155	145757
21.03780	154983
21.04407	160051
21.05032	156541
21.05657	147796
21.06283	136803
21.06908	128863
21.07533	121528
21.08160	124777
21.08785	129392
21.09410	127233
21.10037	123072
21.10662	120536
21.11287	120584
21.11912	123850
21.12538	132121
21.13163	135790
21.13788	131699
21.14415	125671
21.15040	121133
21.15665	117821
21.16292	112738
21.16917	111626
21.17542	109783
21.18168	107975
21.18793	109277
21.19418	118208
21.20045	121921
21.20670	126938
21.21295	134371
21.21922	143153
21.22547	142531
21.23172	136523
21.23798	129640
21.24423	121365
21.25048	119877
21.25675	119919
21.26300	116267
21.26925	113451
21.27552	111293
21.28177	118103
21.28802	131454
21.29428	144852
21.30053	149028
21.30678	142652
21.31305	133832
21.31930	147936
21.32555	185308
21.33182	249749
21.33807	289596
21.34432	275060
21.35057	215474
21.35683	160764
21.36308	129378
21.36933	128091
21.37560	136762
21.38185	139052
21.38810	135896
21.39437	128423
21.40062	116035
21.40687	113220
21.41313	115367
21.41938	121425
21.42563	130745
21.43190	144346
21.43815	153870
21.44440	151525
21.45067	143064
21.45692	134449
21.46317	135215
21.46943	149025
21.47568	154620
21.48193	153070
21.48820	136394
21.49445	118756
21.50070	112837
21.50697	103645
21.51322	102194
21.51947	102350
21.52573	102834
21.53198	104516
21.53823	104895
21.54450	108523
21.55075	107882
21.55700	106913
21.56325	108544
21.56952	111418
21.57577	121407
21.58202	131029
21.58828	138986
21.59453	131634
21.60078	121548
21.60705	114335
21.61330	111282
21.61955	107094
21.62582	104166
21.63207	101647
21.63832	99752
21.64458	93744
21.65083	96454
21.65708	92767
21.66335	93933
21.66960	96306
21.67585	98206
21.68212	99612
21.68837	99214
21.69462	100419
21.70088	98458
21.70713	96359
21.71338	94679
21.71965	95722
21.72590	98686
21.73215	103350
21.73842	107579
21.74467	104867
21.75092	103618
21.75718	101340
21.76343	102639
21.76968	103256
21.77593	99528
21.78220	97308
21.78845	101711
21.79470	102917
21.80097	100309
21.80722	103183
21.81347	107120
21.81973	113022
21.82598	114100
21.83223	112864
21.83850	107666
21.84475	107138
21.85100	99361
21.85727	101232
21.86352	107232
21.86977	104253
21.87603	101876
21.88228	101243
21.88853	102813
21.89480	104274
21.90105	106971
21.90730	128543
21.91357	157587
21.91982	190189
21.92607	198056
21.93233	177917
21.93858	154486
21.94483	153772
21.95110	140215
21.95735	134117
21.96360	123270
21.96987	109950
21.97612	106560
21.98237	110152
21.98863	106077
21.99488	105498
22.00113	109982
22.00738	111611
22.01365	120091
22.01990	125246
22.02615	128913
22.03242	128726
22.03867	130600
22.04492	138227
22.05118	148039
22.05743	162279
22.06368	161083
22.06995	171564
22.07620	186729
22.08245	213626
22.08872	219946
22.09497	202644
22.10122	164692
22.10748	137341
22.11373	125344
22.11998	118533
22.12625	123658
22.13250	125034
22.13875	122476
22.14502	120165
22.15127	117316
22.15752	114363
22.16378	116745
22.17003	120359
22.17628	119043
22.18255	114432
22.18880	115655
22.19505	112748
22.20132	111098
22.20757	113665
22.21382	114370
22.22007	115872
22.22633	119510
22.23258	122479
22.23883	125270
22.24510	139935
22.25135	162258
22.25760	197495
22.26387	230293
22.27012	242764
22.27637	232133
22.28263	218791
22.28888	192158
22.29513	182401
22.30140	177225
22.30765	162111
22.31390	146952
22.32017	137542
22.32642	129062
22.33267	128616
22.33893	123890
22.34518	127837
22.35143	163040
22.35770	296146
22.36395	619474
22.37020	1183830
22.37647	1645376
22.38272	1613689
22.38897	1077553
22.39523	574971
22.40148	283402
22.40773	179916
22.41400	146594
22.42025	137758
22.42650	133872
22.43277	138933
22.43902	142301
22.44527	150828
22.45152	161812
22.45778	189529
22.46403	229063
22.47028	264695
22.47655	264350
22.48280	236625
22.48905	203670
22.49532	176497
22.50157	168316
22.50782	163090
22.51408	153336
22.52033	151137
22.52658	142921
22.53285	139903
22.53910	154852
22.54535	188870
22.55162	244579
22.55787	288004
22.56412	297640
22.57038	269469
22.57663	230105
22.58288	191038
22.58915	161274
22.59540	149544
22.60165	133009
22.60792	132243
22.61417	126698
22.62042	129093
22.62668	124877
22.63293	127931
22.63918	126307
22.64545	134437
22.65170	140567
22.65795	144224
22.66420	147422
22.67047	143102
22.67672	140546
22.68297	142146
22.68923	136795
22.69548	137600
22.70173	135465
22.70800	132461
22.71425	131797
22.72050	124543
22.72677	124828
22.73302	132992
22.73927	130809
22.74553	127793
22.75178	129079
22.75803	128863
22.76430	138064
22.77055	148515
22.77680	154820
22.78307	201880
22.78932	365589
22.79557	973625
22.80183	2908008
22.80808	5625500
22.81433	8785873
22.82060	9039112
22.82685	6424983
22.83310	3238875
22.83937	1394729
22.84562	615497
22.85187	349897
22.85813	249379
22.86438	213497
22.87063	193490
22.87690	178165
22.88315	171511
22.88940	160166
22.89565	157955
22.90192	152734
22.90817	151919
22.91442	143854
22.92068	147260
22.92693	144317
22.93318	140021
22.93945	140393
22.94570	140044
22.95195	141729
22.95822	147234
22.96447	146621
22.97072	144527
22.97698	151667
22.98323	160108
22.98948	166269
22.99575	165154
23.00200	162807
23.00825	147476
23.01452	142305
23.02077	146561
23.02702	139292
23.03328	136075
23.03953	135665
23.04578	137063
23.05205	135711
23.05830	134327
23.06455	135253
23.07082	136839
23.07707	138465
23.08332	144109
23.08958	148140
23.09583	145644
23.10208	144927
23.10833	139106
23.11460	137174
23.12085	139024
23.12710	136119
23.13337	134516
23.13962	134565
23.14587	132358
23.15213	129427
23.15838	126306
23.16463	128302
23.17090	132635
23.17715	126932
23.18340	130946
23.18967	133925
23.19592	131169
23.20217	133536
23.20843	133944
23.21468	134526
23.22093	136213
23.22720	136760
23.23345	136867
23.23970	152920
23.24597	171706
23.25222	192484
23.25847	210598
23.26473	200973
23.27098	177043
23.27723	157482
23.28350	145627
23.28975	141906
23.29600	139050
23.30227	140559
23.30852	139445
23.31477	140321
23.32103	141110
23.32728	139189
23.33353	138047
23.33978	140224
23.34605	136570
23.35230	139389
23.35855	137968
23.36482	139335
23.37107	140681
23.37732	140463
23.38358	142621
23.38983	146178
23.39608	158961
23.40235	162562
23.40860	164990
23.41485	158404
23.42112	152360
23.42737	146242
23.43362	148104
23.43988	143705
23.44613	143925
23.45238	145108
23.45865	146465
23.46490	147263
23.47115	149307
23.47742	151510
23.48367	159381
23.48992	164013
23.49618	171286
23.50243	174521
23.50868	187669
23.51495	208627
23.52120	260385
23.52745	301306
23.53372	305524
23.53997	280261
23.54622	236498
23.55247	198698
23.55873	194032
23.56498	228731
23.57123	344783
23.57750	633514
23.58375	1142427
23.59000	1588171
23.59627	1737035
23.60252	1530504
23.60877	1062844
23.61503	650739
23.62128	400519
23.62753	280828
23.63380	224629
23.64005	200528
23.64630	185822
23.65257	180115
23.65882	174833
23.66507	170850
23.67133	170276
23.67758	169252
23.68383	169050
23.69010	165448
23.69635	167910
23.70260	170095
23.70887	173093
23.71512	170322
23.72137	180748
23.72763	207414
23.73388	242741
23.74013	263072
23.74640	267248
23.75265	244816
23.75890	214853
23.76515	195031
23.77142	187466
23.77767	183709
23.78392	178529
23.79018	181180
23.79643	181343
23.80268	178877
23.80895	181407
23.81520	180403
23.82145	177096
23.82772	177268
23.83397	176999
23.84022	177341
23.84648	174409
23.85273	180198
23.85898	179786
23.86525	181554
23.87150	183391
23.87775	182280
23.88402	190819
23.89027	205228
23.89652	210165
23.90278	215669
23.90903	207105
23.91528	198349
23.92155	196906
23.92780	193577
23.93405	200203
23.94032	200371
23.94657	202552
23.95282	234148
23.95908	319123
23.96533	538429
23.97158	944818
23.97785	1399761
23.98410	1487359
23.99035	1217914
23.99660	868035
24.00287	616025
24.00912	479353
24.01537	382818
24.02163	320254
24.02788	273551
24.03413	252675
24.04040	231455
24.04665	230033
24.05290	229645
24.05917	231177
24.06542	246063
24.07167	272093
24.07793	293290
24.08418	303802
24.09043	301309
24.09670	284890
24.10295	267099
24.10920	250895
24.11547	243705
24.12172	246664
24.12797	253031
24.13423	247746
24.14048	243163
24.14673	241832
24.15300	233273
24.15925	237093
24.16550	240271
24.17177	253844
24.17802	287349
24.18427	337209
24.19053	413756
24.19678	562514
24.20303	918407
24.20928	1868183
24.21555	4210299
24.22180	9368711
24.22805	1.622857E+07
24.23432	2.336991E+07
24.24057	3.179256E+07
24.24682	3.792394E+07
24.25308	4.020991E+07
24.25933	4.081491E+07
24.26558	3.957754E+07
24.27185	2.969651E+07
24.27810	1.039024E+07
24.28435	4288843
24.29062	2961634
24.29687	2542664
24.30312	2279074
24.30938	2105424
24.31563	2009227
24.32188	1926376
24.32815	1904796
24.33440	1884059
24.34065	1939423
24.34692	2026607
24.35317	2114310
24.35942	2198458
24.36568	2260975
24.37193	2305057
24.37818	2326046
24.38445	2335696
24.39070	2296005
24.39695	2196927
24.40322	2123897
24.40947	2029072
24.41572	1962365
24.42197	1854753
24.42823	1750111
24.43448	1694340
24.44073	1617258
24.44700	1578349
24.45325	1463211
24.45950	1374192
24.46577	1287422
24.47202	1237937
24.47827	1175713
24.48453	1123698
24.49078	1089160
24.49703	1046588
24.50330	1015187
24.50955	981969
24.51580	945099
24.52207	914015
24.52832	880388
24.53457	850466
24.54083	824075
24.54708	776160
24.55333	735688
24.55960	712751
24.56585	662752
24.57210	639344
24.57837	618522
24.58462	604965
24.59087	578908
24.59713	554791
24.60338	526798
24.60963	485381
24.61590	459219
24.62215	431096
24.62840	410729
24.63467	388361
24.64092	381437
24.64717	372880
24.65342	377315
24.65968	379961
24.66593	358405
24.67218	345235
24.67845	315233
24.68470	282694
24.69095	265322
24.69722	250437
24.70347	239338
24.70972	229188
24.71598	224956
24.72223	215997
24.72848	207778
24.73475	202595
24.74100	198084
24.74725	196943
24.75352	195330
24.75977	184671
24.76602	190504
24.77228	187746
24.77853	191064
24.78478	194537
24.79105	183469
24.79730	177772
24.80355	165492
24.80982	158591
24.81607	152116
24.82232	145799
24.82858	148518
24.83483	141585
24.84108	141067
24.84735	135797
24.85360	133065
24.85985	135043
24.86610	134111
24.87237	139835
24.87862	151475
24.88487	178190
24.89113	229370
24.89738	290239
24.90363	323709
24.90990	302782
24.91615	255455
24.92240	221409
24.92867	200130
24.93492	193416
24.94117	184399
24.94743	172563
24.95368	162707
24.95993	150942
24.96620	150353
24.97245	146836
24.97870	141200
24.98497	135993
24.99122	126270
24.99747	121277
25.00373	120400
25.00998	120640
25.01623	118510
25.02250	115138
25.02875	116997
25.03500	111735
25.04127	112777
25.04752	114993
25.05377	114454
25.06003	112852
25.06628	110576
25.07253	111180
25.07880	109004
25.08505	108514
25.09130	110298
25.09755	109780
25.10382	109448
25.11007	109041
25.11632	110424
25.12258	107669
25.12883	108338
25.13508	110396
25.14135	106532
25.14760	106273
25.15385	106010
25.16012	103843
25.16637	104549
25.17262	108342
25.17888	116598
25.18513	129934
25.19138	160510
25.19765	181096
25.20390	185238
25.21015	171123
25.21642	150157
25.22267	130436
25.22892	116046
25.23518	112292
25.24143	108591
25.24768	107878
25.25395	105594
25.26020	102889
25.26645	105780
25.27272	106619
25.27897	109529
25.28522	118427
25.29148	135845
25.29773	167434
25.30398	193978
25.31023	217267
25.31650	203960
25.32275	178312
25.32900	151751
25.33527	136923
25.34152	131705
25.34777	127636
25.35403	126562
25.36028	120203
25.36653	118640
25.37280	117405
25.37905	115947
25.38530	114961
25.39157	117673
25.39782	114702
25.40407	121513
25.41033	134691
25.41658	144088
25.42283	143662
25.42910	145475
25.43535	129430
25.44160	130043
25.44787	121511
25.45412	124757
25.46037	118505
25.46663	116837
25.47288	115142
25.47913	114647
25.48540	112400
25.49165	119713
25.49790	134917
25.50417	153367
25.51042	180627
25.51667	187807
25.52293	185420
25.52918	175054
25.53543	179816
25.54168	204123
25.54795	258138
25.55420	293478
25.56045	294701
25.56672	256675
25.57297	202847
25.57922	163346
25.58548	142544
25.59173	131260
25.59798	125612
25.60425	126200
25.61050	121555
25.61675	121031
25.62302	119421
25.62927	120412
25.63552	113153
25.64178	108476
25.64803	108018
25.65428	107895
25.66055	103128
25.66680	103759
25.67305	103766
25.67932	106897
25.68557	108100
25.69182	106174
25.69808	107924
25.70433	103625
25.71058	110298
25.71685	101386
25.72310	98821
25.72935	101448
25.73562	102008
25.74187	100336
25.74812	100998
25.75437	103170
25.76063	103275
25.76688	103296
25.77313	104424
25.77940	99301
25.78565	103697
25.79190	101876
25.79817	101703
25.80442	101732
25.81067	98858
25.81693	103788
25.82318	99784
25.82943	95018
25.83570	98815
25.84195	98057
25.84820	96828
25.85447	100176
25.86072	100834
25.86697	102896
25.87323	102405
25.87948	102044
25.88573	99525
25.89200	95964
25.89825	98300
25.90450	97397
25.91077	97629
25.91702	97694
25.92327	96798
25.92953	98799
25.93578	100022
25.94203	98804
25.94830	97237
25.95455	100523
25.96080	96873
25.96707	97996
25.97332	95651
25.97957	97197
25.98582	97920
25.99208	95938
25.99833	97340
26.00458	95776
26.01085	97139
26.01710	95515
26.02335	99383
26.02962	96829
26.03587	98057
26.04212	97855
26.04838	100016
26.05463	100259
26.06088	100735
26.06715	100174
26.07340	97446
26.07965	100312
26.08592	96938
26.09217	99113
26.09842	97409
26.10468	98943
26.11093	97601
26.11718	99957
26.12345	98767
26.12970	98723
26.13595	95201
26.14222	98284
26.14847	95183
26.15472	94385
26.16098	101132
26.16723	97846
26.17348	99352
26.17975	100918
26.18600	101274
26.19225	104506
26.19850	103488
26.20477	100005
26.21102	104351
26.21727	104252
26.22353	102367
26.22978	103528
26.23603	102136
26.24230	103957
26.24855	103481
26.25480	105305
26.26107	98966
26.26732	104603
26.27357	105179
26.27983	102006
26.28608	106697
26.29233	103586
26.29860	104465
26.30485	103938
26.31110	103050
26.31737	101635
26.32362	101739
26.32987	103990
26.33613	104077
26.34238	107916
26.34863	104938
26.35490	106309
26.36115	109602
26.36740	107485
26.37367	108083
26.37992	110400
26.38617	107524
26.39243	111202
26.39868	111600
26.40493	110203
26.41118	112383
26.41745	110093
26.42370	109799
26.42995	113228
26.43622	114562
26.44247	110810
26.44872	106662
26.45498	107864
26.46123	108613
26.46748	112102
26.47375	112787
26.48000	114358
26.48625	116489
26.49252	117458
26.49877	121211
26.50502	118761
26.51128	117319
26.51753	114335
26.52378	116494
26.53005	124001
26.53630	130412
26.54255	138650
26.54882	145165
26.55507	139466
26.56132	128147
26.56758	122440
26.57383	117452
26.58008	120555
26.58635	120718
26.59260	121103
26.59885	120983
26.60512	119766
26.61137	128993
26.61762	133365
26.62388	142984
26.63013	141139
26.63638	141416
26.64263	134346
26.64890	128282
26.65515	132709
26.66140	134134
26.66767	144658
26.67392	157049
26.68017	171335
26.68643	169819
26.69268	161277
26.69893	168886
26.70520	174059
26.71145	199790
26.71770	194660
26.72397	185072
26.73022	168360
26.73647	150215
26.74273	145225
26.74898	141153
26.75523	146975
26.76150	163775
26.76775	212745
26.77400	275924
26.78027	326641
26.78652	332462
26.79277	294635
26.79903	253322
26.80528	240034
26.81153	220578
26.81780	203731
26.82405	184908
26.83030	175493
26.83657	174746
26.84282	175308
26.84907	174774
26.85532	172194
26.86158	171568
26.86783	166487
26.87408	173848
26.88035	186535
26.88660	206606
26.89285	253534
26.89912	313460
26.90537	410984
26.91162	667760
26.91788	1478534
26.92413	3458982
26.93038	6756160
26.93665	1.19164E+07
26.94290	1.868691E+07
26.94915	2.184606E+07
26.95542	2.059404E+07
26.96167	1.356168E+07
26.96792	6150442
26.97418	3044334
26.98043	1838878
26.98668	1207271
26.99295	828626
26.99920	604561
27.00545	479988
27.01172	443541
27.01797	505525
27.02422	709178
27.03048	1066540
27.03673	1336715
27.04298	1393800
27.04925	1098257
27.05550	787163
27.06175	578510
27.06800	482457
27.07427	413142
27.08052	380508
27.08677	339370
27.09303	304598
27.09928	281256
27.10553	263570
27.11180	243817
27.11805	242114
27.12430	239310
27.13057	255616
27.13682	311005
27.14307	374720
27.14933	443724
27.15558	443614
27.16183	391217
27.16810	323252
27.17435	279056
27.18060	260078
27.18687	256108
27.19312	253002
27.19937	244306
27.20563	233164
27.21188	221383
27.21813	221616
27.22440	208158
27.23065	211333
27.23690	210688
27.24317	203105
27.24942	210707
27.25567	214015
27.26193	232186
27.26818	229420
27.27443	220558
27.28070	216792
27.28695	211750
27.29320	205492
27.29945	201278
27.30572	198076
27.31197	205228
27.31822	204109
27.32448	204165
27.33073	203122
27.33698	200743
27.34325	205105
27.34950	203070
27.35575	209154
27.36202	210680
27.36827	218730
27.37452	218621
27.38078	219814
27.38703	208391
27.39328	211097
27.39955	210671
27.40580	211652
27.41205	225292
27.41832	245674
27.42457	258540
27.43082	250280
27.43708	245570
27.44333	228009
27.44958	225375
27.45585	210265
27.46210	208674
27.46835	192287
27.47462	187526
27.48087	188658
27.48712	193909
27.49338	194117
27.49963	189729
27.50588	193223
27.51213	184225
27.51840	186797
27.52465	178910
27.53090	182733
27.53717	180802
27.54342	190916
27.54967	186010
27.55593	193612
27.56218	180536
27.56843	178638
27.57470	177615
27.58095	181371
27.58720	181411
27.59347	183629
27.59972	180039
27.60597	181303
27.61223	183068
27.61848	187623
27.62473	192363
27.63100	191114
27.63725	185275
27.64350	190406
27.64977	184077
27.65602	186898
27.66227	190634
27.66853	185428
27.67478	192484
27.68103	190252
27.68730	194310
27.69355	199229
27.69980	199097
27.70607	192761
27.71232	203340
27.71857	195553
27.72482	204197
27.73108	216149
27.73733	213121
27.74358	202516
27.74985	210912
27.75610	208896
27.76235	212099
27.76862	212924
27.77487	221147
27.78112	209508
27.78738	206455
27.79363	196613
27.79988	193826
27.80615	196963
27.81240	200562
27.81865	193063
27.82492	190884
27.83117	190355
27.83742	187871
27.84368	195711
27.84993	196224
27.85618	201750
27.86245	213140
27.86870	230083
27.87495	228117
27.88122	226117
27.88747	220074
27.89372	207548
27.89998	209371
27.90623	208105
27.91248	203092
27.91875	195507
27.92500	195448
27.93125	200225
27.93752	197088
27.94377	196041
27.95002	196513
27.95627	200602
27.96253	199018
27.96878	198677
27.97503	196131
27.98130	202601
27.98755	204441
27.99380	204410
28.00007	209045
28.00632	211771
28.01257	207265
28.01883	212893
28.02508	202946
28.03133	209066
28.03760	205901
28.04385	201430
28.05010	200439
28.05637	206761
28.06262	208366
28.06887	199493
28.07513	199003
28.08138	202627
28.08763	208391
28.09390	203747
28.10015	205859
28.10640	200704
28.11267	199941
28.11892	199987
28.12517	203831
28.13143	212171
28.13768	204925
28.14393	210448
28.15020	209726
28.15645	209018
28.16270	210736
28.16897	209698
28.17522	199935
28.18147	209549
28.18772	201443
28.19398	202363
28.20023	199987
28.20648	203617
28.21275	201648
28.21900	202996
28.22525	211265
28.23152	205113
28.23777	204523
28.24402	208011
28.25028	203797
28.25653	208693
28.26278	211331
28.26905	212867
28.27530	208043
28.28155	202170
28.28782	206223
28.29407	213981
28.30032	209248
28.30658	218954
28.31283	215581
28.31908	217524
28.32535	222151
28.33160	229826
28.33785	234844
28.34412	234053
28.35037	229111
28.35662	228406
28.36288	238230
28.36913	245702
28.37538	242492
28.38165	255959
28.38790	267677
28.39415	262093
28.40040	267325
28.40667	276399
28.41292	275190
28.41917	280596
28.42543	278360
28.43168	285384
28.43793	279580
28.44420	269813
28.45045	276414
28.45670	274104
28.46297	274721
28.46922	263992
28.47547	272029
28.48173	260841
28.48798	258791
28.49423	252885
28.50050	254387
28.50675	254645
28.51300	248665
28.51927	245194
28.52552	234344
28.53177	232960
28.53803	229430
28.54428	229206
28.55053	231276
28.55680	225267
28.56305	221775
28.56930	221511
28.57557	219833
28.58182	219516
28.58807	218125
28.59433	216988
28.60058	215350
28.60683	220520
28.61310	209548
28.61935	211743
28.62560	220182
28.63185	213752
28.63812	217981
28.64437	211699
28.65062	218622
28.65688	211385
28.66313	217374
28.66938	212544
28.67565	208943
28.68190	213802
28.68815	210960
28.69442	215752
28.70067	207161
28.70692	209260
28.71318	211554
28.71943	206248
28.72568	208175
28.73195	208794
28.73820	209193
28.74445	213082
28.75072	216708
28.75697	209560
28.76322	211638
28.76948	214067
28.77573	209702
28.78198	205789
28.78825	204662
28.79450	213762
28.80075	206430
28.80702	215814
28.81327	204970
28.81952	206548
28.82578	208570
28.83203	203478
28.83828	204157
28.84453	203193
28.85080	204201
28.85705	202726
28.86330	205622
28.86957	205142
28.87582	206478
28.88207	208031
28.88833	203553
28.89458	203630
28.90083	205474
28.90710	205821
28.91335	201982
28.91960	212440
28.92587	207292
28.93212	201241
28.93837	202884
28.94463	208054
28.95088	212551
28.95713	203678
28.96340	206892
28.96965	201492
28.97590	200330
28.98217	211511
28.98842	201912
28.99467	211529
29.00093	211311
29.00718	209650
29.01343	204395
29.01970	204881
29.02595	201877
29.03220	207019
29.03847	204884
29.04472	206360
29.05097	204475
29.05722	203763
29.06348	210311
29.06973	205750
29.07598	206103
29.08225	199964
29.08850	199605
29.09475	200197
29.10102	207466
29.10727	203178
29.11352	207276
29.11978	200086
29.12603	198505
29.13228	200702
29.13855	199264
29.14480	197304
29.15105	197865
29.15732	202363
29.16357	203302
29.16982	200016
29.17608	200383
29.18233	200848
29.18858	205368
29.19485	199683
29.20110	198861
29.20735	200273
29.21362	203276
29.21987	199835
29.22612	201919
29.23238	205656
29.23863	214758
29.24488	223340
29.25115	216223
29.25740	227821
29.26365	217356
29.26992	221053
29.27617	212091
29.28242	205626
29.28867	209792
29.29493	203245
29.30118	201714
29.30743	200422
29.31370	200664
29.31995	200382
29.32620	202917
29.33247	198298
29.33872	205191
29.34497	199081
29.35123	202016
29.35748	209078
29.36373	197965
29.37000	197788
29.37625	201314
29.38250	198631
29.38877	205308
29.39502	196030
29.40127	200905
29.40753	196758
29.41378	198262
29.42003	203602
29.42630	198857
29.43255	204454
29.43880	197344
29.44507	204985
29.45132	204926
29.45757	201128
29.46383	195876
29.47008	203710
29.47633	197817
29.48260	203304
29.48885	197620
29.49510	195852
29.50135	198095
29.50762	198536
29.51387	195066
29.52012	204295
29.52638	198607
29.53263	197534
29.53888	205549
29.54515	194696
29.55140	194465
29.55765	199073
29.56392	193174
29.57017	194587
29.57642	196615
29.58268	192559
29.58893	196221
29.59518	198429
29.60145	199458
29.60770	194982
29.61395	190417
29.62022	194103
29.62647	203536
29.63272	193788
29.63898	194654
29.64523	196097
29.65148	193239
29.65775	195903
29.66400	202200
29.67025	195909
29.67652	197883
29.68277	198842
29.68902	202946
29.69528	193929
29.70153	198010
29.70778	192040
29.71403	197986
29.72030	192022
29.72655	194265
29.73280	193704
29.73907	192876
29.74532	195535
29.75157	197682
29.75783	191168
29.76408	201948
29.77033	193533
29.77660	192141
29.78285	193610
29.78910	198574
29.79537	192320
29.80162	199573
29.80787	196551
29.81413	193195
29.82038	195551
29.82663	191212
29.83290	192628
29.83915	194414
29.84540	194581
29.85167	193872
29.85792	197567
29.86417	191177
29.87043	192571
29.87668	194178
29.88293	190527
29.88920	198650
29.89545	195298
29.90170	190012
29.90797	198566
29.91422	196634
29.92047	196421
29.92673	192232
29.93298	195993
29.93923	188273
29.94548	191994
29.95175	193833
29.95800	191622
29.96425	186506
29.97052	187350
29.97677	191305
29.98302	188210
29.98928	195563
29.99553	196925
30.00178	191351
30.00805	191455
30.01430	187896
30.02055	189986
30.02682	194586
30.03307	188121
30.03932	187221
30.04558	198038
30.05183	188715
30.05808	195377
30.06435	191008
30.07060	190104
30.07685	192058
30.08312	187252
30.08937	185577
30.09562	188804
30.10188	195214
30.10813	187578
30.11438	193002
30.12065	187945
30.12690	192780
30.13315	187831
30.13942	188768
30.14567	192952
30.15192	196077
30.15817	184915
30.16443	187065
30.17068	191245
30.17693	189220
30.18320	190599
30.18945	190425
30.19570	192578
30.20197	189581
30.20822	193646
30.21447	191999
30.22073	189445
30.22698	193963
30.23323	188540
30.23950	193174
30.24575	193731
30.25200	186143
30.25827	182216
30.26452	187290
30.27077	187742
30.27703	192590
30.28328	190892
30.28953	184358
30.29580	194523
30.30205	187500
30.30830	193582
30.31457	190315
30.32082	187781
30.32707	194946
30.33333	185701
30.33958	194252
30.34583	191618
30.35210	185120
30.35835	188547
30.36460	191178
30.37087	192187
30.37712	183844
30.38337	183027
30.38962	193344
30.39588	190192
30.40213	183786
30.40838	186204
30.41465	185431
30.42090	185723
30.42715	188804
30.43342	181985
30.43967	190406
30.44592	188547
30.45218	184164
30.45843	183324
30.46468	191369
30.47095	188519
30.47720	182876
30.48345	186834
30.48972	183189
30.49597	178953
30.50222	185797
30.50848	181063
30.51473	184071
30.52098	185378
30.52725	180364
30.53350	181746
30.53975	187578
30.54602	181660
30.55227	185755
30.55852	185244
30.56478	181722
30.57103	187040
30.57728	184508
30.58355	179816
30.58980	179610
30.59605	181926
30.60230	186169
30.60857	181472
30.61482	183673
30.62107	187280
30.62733	179980
30.63358	190706
30.63983	186082
30.64610	185919
30.65235	187500
30.65860	183774
30.66487	182218
30.67112	183318
30.67737	182323
30.68363	182419
30.68988	180779
30.69613	182709
30.70240	187626
30.70865	184345
30.71490	182794
30.72117	185922
30.72742	186006
30.73367	181409
30.73993	180410
30.74618	186095
30.75243	178930
30.75870	188293
30.76495	176252
30.77120	179748
30.77747	180416
30.78372	185517
30.78997	179196
30.79623	180470
30.80248	177695
30.80873	185950
30.81500	184252
30.82125	180466
30.82750	180110
30.83375	178664
30.84002	181954
30.84627	180043
30.85252	187868
30.85878	180420
30.86503	179056
30.87128	179096
30.87755	180357
30.88380	183596
30.89005	174718
30.89632	184931
30.90257	183406
30.90882	186246
30.91508	177805
30.92133	180935
30.92758	178432
30.93385	175405
30.94010	180153
30.94635	177866
30.95262	181909
30.95887	173858
30.96512	184082
30.97138	180837
30.97763	177233
30.98388	176248
30.99015	185115
30.99640	185713
31.00265	185583
31.00892	185151
31.01517	188129
31.02142	187022
31.02768	194256
31.03393	188165
31.04018	181375
31.04643	182859
31.05270	184311
31.05895	182747
31.06520	180249
31.07147	177412
31.07772	178505
31.08397	177820
31.09023	174484
31.09648	181639
31.10273	177422
31.10900	180378
31.11525	175384
31.12150	177193
31.12777	177497
31.13402	176149
31.14027	176716
31.14653	178077
31.15278	177672
31.15903	174285
31.16530	174563
31.17155	181586
31.17780	174389
31.18407	180007
31.19032	182363
31.19657	174520
31.20283	173988
31.20908	179680
31.21533	177151
31.22160	175213
31.22785	180718
31.23410	178199
31.24037	175177
31.24662	173298
31.25287	171540
31.25913	174716
31.26538	173971
31.27163	182433
31.27788	180974
31.28415	173110
31.29040	172012
31.29665	181995
31.30292	172701
31.30917	176155
31.31542	173963
31.32168	176527
31.32793	174906
31.33418	174300
31.34045	176362
31.34670	178112
31.35295	174914
31.35922	176623
31.36547	173278
31.37172	175407
31.37798	181719
31.38423	176809
31.39048	175464
31.39675	172818
31.40300	178368
31.40925	178599
31.41552	177367
31.42177	175077
31.42802	175120
31.43428	178760
31.44053	175437
31.44678	177798
31.45305	176382
31.45930	182763
31.46555	181335
31.47182	175877
31.47807	179749
31.48432	174729
31.49057	183366
31.49683	174955
31.50308	169880
31.50933	174637
31.51560	179072
31.52185	173734
31.52810	175023
31.53437	173822
31.54062	171726
31.54687	174443
31.55313	179398
31.55938	172222
31.56563	170571
31.57190	172846
31.57815	172437
31.58440	177193
31.59067	177043
31.59692	175828
31.60317	171348
31.60943	177033
31.61568	170952
31.62193	171242
31.62820	171214
31.63445	177474
31.64070	171689
31.64697	178296
31.65322	171401
31.65947	173302
31.66573	179246
31.67198	170919
31.67823	169718
31.68450	171987
31.69075	168460
31.69700	170732
31.70325	178496
31.70952	171332
31.71577	169265
31.72202	171744
31.72828	170289
31.73453	176707
31.74078	175433
31.74705	178109
31.75330	174467
31.75955	173034
31.76582	170788
31.77207	176868
31.77832	170797
31.78458	177136
31.79083	170465
31.79708	176490
31.80335	172610
31.80960	169162
31.81585	169939
31.82212	168508
31.82837	173250
31.83462	179020
31.84088	168138
31.84713	167089
31.85338	169391
31.85965	168005
31.86590	176218
31.87215	174562
31.87842	168278
31.88467	168351
31.89092	171792
31.89718	172978
31.90343	176139
31.90968	168321
31.91595	166711
31.92220	167895
31.92845	165029
31.93470	172315
31.94097	167963
31.94722	166544
31.95347	166130
31.95973	175356
31.96598	174917
31.97223	168746
31.97850	168193
31.98475	167455
31.99100	172621
31.99727	167667
32.00352	169057
32.00977	166513
32.01603	172708
32.02228	167044
32.02853	168575
32.03480	168254
32.04105	172449
32.04730	165543
32.05357	169605
32.05982	170910
32.06607	166020
32.07233	173592
32.07858	168683
32.08483	165882
32.09110	168785
32.09735	169340
32.10360	165875
32.10987	164822
32.11612	168816
32.12237	164932
32.12863	166107
32.13488	171526
32.14113	165643
32.14738	168921
32.15365	170352
32.15990	164550
32.16615	167112
32.17242	168944
32.17867	171413
32.18492	163211
32.19118	171628
32.19743	164003
32.20368	169332
32.20995	168810
32.21620	163306
32.22245	163751
32.22872	163419
32.23497	167183
32.24122	167205
32.24748	172328
32.25373	166116
32.25998	167554
32.26625	168343
32.27250	165749
32.27875	164644
32.28502	171275
32.29127	169053
32.29752	168429
32.30378	167999
32.31003	164798
32.31628	170200
32.32255	164294
32.32880	163675
32.33505	165992
32.34132	170991
32.34757	169349
32.35382	169420
32.36007	166588
32.36633	165471
32.37258	167451
32.37883	164548
32.38510	165168
32.39135	162533
32.39760	164610
32.40387	160013
32.41012	168372
32.41637	162050
32.42263	170017
32.42888	169656
32.43513	167002
32.44140	163113
32.44765	168885
32.45390	165827
32.46017	167091
32.46642	169676
32.47267	164958
32.47893	163608
32.48518	160257
32.49143	164107
32.49770	164970
32.50395	163544
32.51020	162557
32.51647	166353
32.52272	161609
32.52897	164002
32.53523	164933
32.54148	159229
32.54773	166860
32.55400	162886
32.56025	163417
32.56650	163145
32.57277	164292
32.57902	161419
32.58527	161878
32.59152	162615
32.59778	162809
32.60403	158890
32.61028	160391
32.61655	163371
32.62280	168843
32.62905	161792
32.63532	159845
32.64157	160166
32.64782	161860
32.65408	162627
32.66033	161609
32.66658	166389
32.67285	166131
32.67910	164457
32.68535	160801
32.69162	162919
32.69787	162234
32.70412	164417
32.71038	161849
32.71663	163938
32.72288	166295
32.72915	158479
32.73540	159700
32.74165	158109
32.74792	159147
32.75417	160272
32.76042	164829
32.76668	157816
32.77293	167226
32.77918	159130
32.78545	159470
32.79170	157881
32.79795	159304
32.80420	164419
32.81047	162878
32.81672	161413
32.82297	164070
32.82923	158936
32.83548	160980
32.84173	157382
32.84800	157384
32.85425	161225
32.86050	158275
32.86677	164979
32.87302	156843
32.87927	167835
32.88553	158468
32.89178	164339
32.89803	162944
32.90430	159803
32.91055	159387
32.91680	157172
32.92307	163158
32.92932	163111
32.93557	160552
32.94183	163959
32.94808	158649
32.95433	158986
32.96060	164380
32.96685	158721
32.97310	156519
32.97937	157552
32.98562	162695
32.99187	159469
32.99813	161804
33.00438	155159
33.01063	158592
33.01690	160894
33.02315	162123
33.02940	155939
33.03565	158113
33.04192	156239
33.04817	157121
33.05442	164181
33.06068	165241
33.06693	152566
33.07318	155588
33.07945	157040
33.08570	156601
33.09195	155866
33.09822	155885
33.10447	161675
33.11072	163087
33.11698	157492
33.12323	163538
33.12948	155608
33.13575	158698
33.14200	157966
33.14825	163458
33.15452	159468
33.16077	166407
33.16702	162507
33.17328	170401
33.17953	174353
33.18578	171250
33.19205	171420
33.19830	174592
33.20455	172124
33.21082	174596
33.21707	170805
33.22332	171261
33.22958	164227
33.23583	166042
33.24208	167267
33.24833	156597
33.25460	164608
33.26085	157689
33.26710	158409
33.27337	158626
33.27962	161074
33.28587	161575
33.29213	157090
33.29838	155704
33.30463	155291
33.31090	161363
33.31715	156774
33.32340	159041
33.32967	161602
33.33592	161196
33.34217	158976
33.34843	160587
33.35468	156963
33.36093	153812
33.36720	157967
33.37345	156192
33.37970	155263
33.38597	155486
33.39222	159293
33.39847	162342
33.40473	157723
33.41098	161065
33.41723	161846
33.42350	153256
33.42975	161292
33.43600	159060
33.44227	160580
33.44852	160953
33.45477	153324
33.46103	161846
33.46728	150337
33.47353	157534
33.47978	155433
33.48605	154794
33.49230	153271
33.49855	154951
33.50482	157939
33.51107	160797
33.51732	161690
33.52358	154408
33.52983	160150
33.53608	161432
33.54235	154606
33.54860	160070
33.55485	149330
33.56112	153022
33.56737	154082
33.57362	154469
33.57988	157307
33.58613	157466
33.59238	154447
33.59865	154507
33.60490	152111
33.61115	151628
33.61742	155445
33.62367	148421
33.62992	159315
33.63618	149620
33.64243	153901
33.64868	155959
33.65495	156553
33.66120	151567
33.66745	154400
33.67372	157121
33.67997	154029
33.68622	153140
33.69247	154726
33.69873	151282
33.70498	154627
33.71123	150098
33.71750	151267
33.72375	148434
33.73000	152864
33.73627	153332
33.74252	153531
33.74877	154818
33.75503	154788
33.76128	152727
33.76753	155703
33.77380	156641
33.78005	155967
33.78630	152454
33.79257	151922
33.79882	153153
33.80507	156193
33.81133	154385
33.81758	151542
33.82383	152825
33.83010	150887
33.83635	154995
33.84260	150219
33.84887	149892
33.85512	146981
33.86137	152546
33.86763	150140
33.87388	147773
33.88013	154938
33.88640	152521
33.89265	148612
33.89890	148225
33.90517	154430
33.91142	148887
33.91767	153394
33.92392	147788
33.93018	149816
33.93643	149505
33.94268	152307
33.94895	149051
33.95520	155755
33.96145	149123
33.96772	154512
33.97397	150156
33.98022	153494
33.98648	149164
33.99273	148464
33.99898	149233
34.00525	149701
34.01150	152591
34.01775	152955
34.02402	154509
34.03027	152092
34.03652	154677
34.04278	152864
34.04903	149617
34.05528	148799
34.06155	149537
34.06780	147674
34.07405	150285
34.08032	152593
34.08657	151621
34.09282	146164
34.09908	148237
34.10533	150878
34.11158	155274
34.11785	151012
34.12410	146764
34.13035	147101
34.13660	147136
34.14287	147458
34.14912	148822
34.15537	145368
34.16163	148621
34.16788	151737
34.17413	149447
34.18040	147880
34.18665	147630
34.19290	147578
34.19917	147050
34.20542	147837
34.21167	146289
34.21793	153658
34.22418	150074
34.23043	148194
34.23670	144646
34.24295	147218
34.24920	148430
34.25547	145305
34.26172	146403
34.26797	152318
34.27423	147183
34.28048	151352
34.28673	146310
34.29300	147638
34.29925	145450
34.30550	149876
34.31177	147369
34.31802	148825
34.32427	143222
34.33053	148120
34.33678	152745
34.34303	149080
34.34928	147825
34.35555	148174
34.36180	151952
34.36805	150538
34.37432	151069
34.38057	151928
34.38682	147819
34.39308	148663
34.39933	148578
34.40558	148571
34.41185	146996
34.41810	147133
34.42435	151363
34.43062	143226
34.43687	142847
34.44312	146692
34.44938	145765
34.45563	146581
34.46188	148033
34.46815	144873
34.47440	146373
34.48065	146314
34.48692	143717
34.49317	144013
34.49942	146084
34.50568	148044
34.51193	142379
34.51818	142912
34.52445	148796
34.53070	144049
34.53695	144928
34.54322	143151
34.54947	149857
34.55572	154819
34.56198	148373
34.56823	144181
34.57448	144919
34.58073	147517
34.58700	143729
34.59325	146746
34.59950	146630
34.60577	151840
34.61202	144842
34.61827	142464
34.62453	145797
34.63078	145834
34.63703	147647
34.64330	146656
34.64955	143002
34.65580	151005
34.66207	141524
34.66832	151737
34.67457	145882
34.68083	142581
34.68708	142609
34.69333	150497
34.69960	145848
34.70585	143218
34.71210	141191
34.71837	146929
34.72462	145316
34.73087	142298
34.73713	144780
34.74338	146388
34.74963	141759
34.75590	142114
34.76215	142161
34.76840	143845
34.77467	142002
34.78092	144593
34.78717	142636
34.79342	149077
34.79968	144606
34.80593	143497
34.81218	142202
34.81845	146593
34.82470	146920
34.83095	143021
34.83722	141614
34.84347	145641
34.84972	141056
34.85598	140995
34.86223	141120
34.86848	147259
34.87475	142707
34.88100	145895
34.88725	145769
34.89352	147254
34.89977	145314
34.90602	145823
34.91228	144162
34.91853	141558
34.92478	146962
34.93105	142224
34.93730	142455
34.94355	141629
34.94982	142987
34.95607	146914
34.96232	140314
34.96858	143826
34.97483	140570
34.98108	145955
34.98735	138445
34.99360	140540
34.99985	145745
35.00610	139388
35.01237	142191
35.01862	140640
35.02487	141853
35.03113	144445
35.03738	141514
35.04363	145561
35.04990	142567
35.05615	141405
35.06240	138715
35.06867	143267
35.07492	142324
35.08117	146069
35.08743	141183
35.09368	141093
35.09993	141104
35.10620	137613
35.11245	143027
35.11870	143302
35.12497	142019
35.13122	147275
35.13747	142031
35.14373	142634
35.14998	138552
35.15623	143393
35.16250	141162
35.16875	140102
35.17500	138634
35.18127	140496
35.18752	146629
35.19377	140054
35.20003	142000
35.20628	142404
35.21253	143627
35.21880	141317
35.22505	137669
35.23130	141877
35.23755	141476
35.24382	138807
35.25007	141768
35.25632	138740
35.26258	139762
35.26883	137109
35.27508	145461
35.28135	143608
35.28760	143907
35.29385	137614
35.30012	138085
35.30637	136000
35.31262	142033
35.31888	136791
35.32513	142024
35.33138	141325
35.33765	136104
35.34390	139778
35.35015	142682
35.35642	143871
35.36267	137288
35.36892	144113
35.37518	141864
35.38143	142095
35.38768	135748
35.39395	141152
35.40020	143725
35.40645	139867
35.41272	137449
35.41897	136970
35.42522	138096
35.43148	139973
35.43773	138130
35.44398	137746
35.45023	139701
35.45650	141001
35.46275	140131
35.46900	142560
35.47527	142215
35.48152	139500
35.48777	141901
35.49403	136945
35.50028	137478
35.50653	143037
35.51280	144069
35.51905	138783
35.52530	137476
35.53157	138298
35.53782	136924
35.54407	135164
35.55033	136947
35.55658	140851
35.56283	133886
35.56910	141334
35.57535	141397
35.58160	137428
35.58787	138016
35.59412	141721
35.60037	139216
35.60663	138406
35.61288	141907
35.61913	139613
35.62540	139606
35.63165	134328
35.63790	139501
35.64417	139217
35.65042	134529
35.65667	139427
35.66292	138772
35.66918	140069
35.67543	143474
35.68168	140986
35.68795	136389
35.69420	139258
35.70045	137230
35.70672	139899
35.71297	134587
35.71922	139644
35.72548	133248
35.73173	136696
35.73798	133624
35.74425	139819
35.75050	135841
35.75675	134016
35.76302	141967
35.76927	136757
35.77552	139706
35.78178	135327
35.78803	137688
35.79428	137849
35.80055	134224
35.80680	140096
35.81305	135034
35.81932	134886
35.82557	132640
35.83182	134083
35.83808	135009
35.84433	137751
35.85058	136209
35.85685	135198
35.86310	140079
35.86935	133793
35.87562	135137
35.88187	136165
35.88812	135505
35.89437	138745
35.90063	136983
35.90688	132639
35.91313	134100
35.91940	136685
35.92565	135136
35.93190	139886
35.93817	135140
35.94442	134184
35.95067	135468
35.95693	132768
35.96318	134114
35.96943	134396
35.97570	136773
35.98195	137870
35.98820	133052
35.99447	131079
36.00072	136459
36.00697	131434
36.01323	136470
36.01948	137800
36.02573	136110
36.03200	131359
36.03825	131000
36.04450	137136
36.05077	140071
36.05702	131756
36.06327	137034
36.06953	136432
36.07578	133649
36.08203	131426
36.08830	135219
36.09455	136979
36.10080	133801
36.10707	135895
36.11332	133848
36.11957	131515
36.12582	131517
36.13208	135708
36.13833	133932
36.14458	130403
36.15085	138097
36.15710	136649
36.16335	133990
36.16962	136379
36.17587	135838
36.18212	135072
36.18838	135328
36.19463	139327
36.20088	132159
36.20715	133376
36.21340	133198
36.21965	136681
36.22592	136099
36.23217	132420
36.23842	133235
36.24468	134664
36.25093	136021
36.25718	142575
36.26345	144590
36.26970	142517
36.27595	146780
36.28222	158150
36.28847	157242
36.29472	161390
36.30098	171502
36.30723	177665
36.31348	188366
36.31975	200140
36.32600	214947
36.33225	217966
36.33850	234395
36.34477	231764
36.35102	240394
36.35727	236675
36.36353	237904
36.36978	231138
36.37603	227349
36.38230	223532
36.38855	205539
36.39480	199450
36.40107	191154
36.40732	185265
36.41357	182820
36.41983	169124
36.42608	162708
36.43233	160743
36.43860	153428
36.44485	155119
36.45110	149038
36.45737	151538
36.46362	145422
36.46987	140633
36.47613	143469
36.48238	143175
36.48863	148079
36.49490	141424
36.50115	144336
36.50740	145386
36.51367	141004
36.51992	142737
36.52617	138609
36.53243	137735
36.53868	142449
36.54493	137445
36.55120	141003
36.55745	140113
36.56370	138592
36.56995	138190
36.57622	140901
36.58247	141982
36.58872	139829
36.59498	137038
36.60123	136958
36.60748	138436
36.61375	135321
36.62000	143513
36.62625	141579
36.63252	133631
36.63877	138134
36.64502	132881
36.65128	141408
36.65753	138446
36.66378	133101
36.67005	138229
36.67630	134012
36.68255	134952
36.68882	137220
36.69507	137109
36.70132	134900
36.70758	131670
36.71383	137949
36.72008	138816
36.72635	136913
36.73260	135759
36.73885	133843
36.74512	134042
36.75137	134608
36.75762	131935
36.76388	135274
36.77013	133471
36.77638	133470
36.78263	132646
36.78890	129778
36.79515	133102
36.80140	131112
36.80767	132701
36.81392	134084
36.82017	130597
36.82643	132091
36.83268	137280
36.83893	133507
36.84520	131932
36.85145	133521
36.85770	131381
36.86397	131444
36.87022	132057
36.87647	130912
36.88273	132860
36.88898	132697
36.89523	132362
36.90150	132171
36.90775	134196
36.91400	134253
36.92027	134195
36.92652	129865
36.93277	128445
36.93903	132493
36.94528	135457
36.95153	129924
36.95780	130120
36.96405	136093
36.97030	132248
36.97657	128555
36.98282	129677
36.98907	130784
36.99532	133545
37.00158	131531
37.00783	129394
37.01408	128502
37.02035	136606
37.02660	128676
37.03285	128191
37.03912	136490
37.04537	130482
37.05162	133720
37.05788	134407
37.06413	128540
37.07038	133571
37.07665	129975
37.08290	134873
37.08915	136069
37.09542	129348
37.10167	130779
37.10792	132820
37.11418	129386
37.12043	136258
37.12668	135299
37.13295	129951
37.13920	130316
37.14545	130055
37.15172	128130
37.15797	131562
37.16422	127533
37.17048	128898
37.17673	128037
37.18298	130333
37.18925	130020
37.19550	128237
37.20175	129254
37.20802	131404
37.21427	130380
37.22052	130190
37.22677	128837
37.23303	128936
37.23928	128686
37.24553	127237
37.25180	129075
37.25805	127059
37.26430	131277
37.27057	126470
37.27682	129009
37.28307	129081
37.28933	127470
37.29558	129072
37.30183	127882
37.30810	129254
37.31435	133297
37.32060	128650
37.32687	127756
37.33312	128523
37.33937	134020
37.34563	125880
37.35188	129563
37.35813	126713
37.36440	134467
37.37065	130718
37.37690	129283
37.38317	131985
37.38942	128278
37.39567	125862
37.40193	129066
37.40818	128478
37.41443	131199
37.42070	128758
37.42695	130920
37.43320	128728
37.43945	133932
37.44572	129687
37.45197	131623
37.45822	126292
37.46448	129948
37.47073	126330
37.47698	126827
37.48325	126456
37.48950	129855
