D:\MassHunter\GCMS\1\data\metastasis_lineages_3replicates_3runs_10302020\P_plate3_run3_10302020.D Sat Oct 31 15:01:50 2020
Start of data points
5.99338,165402
5.99965,152819
6.00590,165328
6.01215,167379
6.01842,166424
6.02467,172878
6.03092,172489
6.03718,186313
6.04343,186922
6.04968,173882
6.05595,168573
6.06220,177934
6.06845,207324
6.07470,234549
6.08097,239947
6.08722,211668
6.09347,246280
6.09973,464928
6.10598,945283
6.11223,1304013
6.11850,1108539
6.12475,664210
6.13100,403965
6.13727,318921
6.14352,292905
6.14977,324100
6.15603,482982
6.16228,838587
6.16853,1206572
6.17480,1213577
6.18105,859995
6.18730,525512
6.19357,359011
6.19982,277619
6.20607,228482
6.21233,215532
6.21858,216480
6.22483,222455
6.23110,218933
6.23735,208905
6.24360,189831
6.24987,183547
6.25612,172923
6.26237,173531
6.26863,167521
6.27488,173051
6.28113,181218
6.28738,179391
6.29365,187367
6.29990,222610
6.30615,374741
6.31242,708036
6.31867,1211647
6.32492,1892334
6.33118,3355755
6.33743,6979302
6.34368,1.315774E+07
6.34995,1.852605E+07
6.35620,1.752656E+07
6.36245,8670650
6.36872,2119101
6.37497,488114
6.38122,256915
6.38748,242423
6.39373,235879
6.39998,255420
6.40625,323437
6.41250,483507
6.41875,710209
6.42502,955642
6.43127,1110799
6.43752,1087035
6.44378,835687
6.45003,888730
6.45628,2278506
6.46255,6387687
6.46880,1.343212E+07
6.47505,2.204357E+07
6.48132,3.041673E+07
6.48757,3.659612E+07
6.49382,4.069934E+07
6.50008,4.401845E+07
6.50633,4.652505E+07
6.51258,4.794254E+07
6.51883,4.763674E+07
6.52510,4.695778E+07
6.53135,4.580274E+07
6.53760,4.441773E+07
6.54387,4.45994E+07
6.55012,2.951875E+07
6.55637,1882591
6.56263,1041185
6.56888,922295
6.57513,1062843
6.58140,1600804
6.58765,2347533
6.59390,2604589
6.60017,1866383
6.60642,921111
6.61267,460263
6.61893,355657
6.62518,327632
6.63143,316092
6.63770,336790
6.64395,341605
6.65020,322232
6.65647,300462
6.66272,293008
6.66897,328280
6.67523,423197
6.68148,510170
6.68773,484197
6.69400,392078
6.70025,325407
6.70650,311541
6.71277,317240
6.71902,332407
6.72527,343391
6.73152,357178
6.73778,357323
6.74403,379991
6.75028,389303
6.75655,397841
6.76280,397235
6.76905,397134
6.77532,389463
6.78157,399539
6.78782,405292
6.79408,411146
6.80033,435570
6.80658,466396
6.81285,513203
6.81910,549260
6.82535,545341
6.83162,526393
6.83787,522732
6.84412,548935
6.85038,634165
6.85663,692948
6.86288,665311
6.86915,579107
6.87540,536353
6.88165,570379
6.88792,671493
6.89417,784825
6.90042,767133
6.90668,657469
6.91293,555960
6.91918,509841
6.92545,478675
6.93170,463967
6.93795,465437
6.94420,472047
6.95047,449407
6.95672,434078
6.96297,412299
6.96923,404364
6.97548,396723
6.98173,398351
6.98800,399048
6.99425,373481
7.00050,350050
7.00677,339085
7.01302,350406
7.01927,408874
7.02553,594430
7.03178,1135506
7.03803,2478129
7.04430,5384953
7.05055,9459059
7.05680,1.148221E+07
7.06307,9124434
7.06932,4432973
7.07557,1409337
7.08183,444757
7.08808,263258
7.09433,219419
7.10060,202766
7.10685,197243
7.11310,182010
7.11937,174619
7.12562,167028
7.13187,159289
7.13813,199894
7.14438,294893
7.15063,465067
7.15690,586536
7.16315,502134
7.16940,313350
7.17565,191564
7.18192,152952
7.18817,142395
7.19442,151903
7.20068,201551
7.20693,286266
7.21318,326533
7.21945,271208
7.22570,202061
7.23195,162669
7.23822,161278
7.24447,191400
7.25072,238630
7.25698,363954
7.26323,648409
7.26948,885004
7.27575,852451
7.28200,598404
7.28825,356545
7.29452,223611
7.30077,175893
7.30702,166091
7.31328,157957
7.31953,157751
7.32578,138553
7.33205,134460
7.33830,126635
7.34455,127346
7.35082,125581
7.35707,121540
7.36332,124460
7.36958,118850
7.37583,120428
7.38208,124361
7.38833,144032
7.39460,167224
7.40085,171844
7.40710,163982
7.41337,172827
7.41962,243139
7.42587,349104
7.43213,444817
7.43838,431158
7.44463,351438
7.45090,243633
7.45715,179047
7.46340,162945
7.46967,172685
7.47592,176314
7.48217,181188
7.48843,195621
7.49468,231460
7.50093,294027
7.50720,370221
7.51345,378273
7.51970,299349
7.52597,210146
7.53222,147024
7.53847,132537
7.54473,139726
7.55098,263158
7.55723,974507
7.56350,3641265
7.56975,9931176
7.57600,1.898849E+07
7.58227,2.673364E+07
7.58852,2.843262E+07
7.59477,2.079136E+07
7.60103,8563983
7.60728,2977508
7.61353,1630278
7.61978,1152308
7.62605,877649
7.63230,653355
7.63855,450279
7.64482,303625
7.65107,237308
7.65732,209428
7.66358,198621
7.66983,227388
7.67608,313766
7.68235,441686
7.68860,518377
7.69485,466338
7.70112,337561
7.70737,246874
7.71362,254939
7.71988,355605
7.72613,432960
7.73238,410916
7.73865,345531
7.74490,273730
7.75115,229977
7.75742,194322
7.76367,175995
7.76992,161196
7.77618,164645
7.78243,169141
7.78868,169544
7.79495,160609
7.80120,155004
7.80745,161343
7.81372,166788
7.81997,196890
7.82622,293199
7.83247,415610
7.83873,460046
7.84498,387789
7.85123,278573
7.85750,216164
7.86375,219490
7.87000,228243
7.87627,231834
7.88252,215973
7.88877,195864
7.89503,184141
7.90128,191728
7.90753,200631
7.91380,212657
7.92005,214957
7.92630,205383
7.93257,194722
7.93882,189646
7.94507,216432
7.95133,291008
7.95758,396709
7.96383,421516
7.97010,370338
7.97635,315260
7.98260,313730
7.98887,404905
7.99512,657851
8.00137,1055855
8.00763,1542168
8.01388,2213381
8.02013,2821105
8.02640,2781286
8.03265,2036759
8.03890,1259596
8.04517,975249
8.05142,1087345
8.05767,1202685
8.06392,1027841
8.07018,680808
8.07643,408138
8.08268,359467
8.08895,491881
8.09520,717934
8.10145,917426
8.10772,1023787
8.11397,1212442
8.12022,1474794
8.12648,1455204
8.13273,1005148
8.13898,517832
8.14525,287977
8.15150,218974
8.15775,185498
8.16402,171350
8.17027,163435
8.17652,164805
8.18278,155994
8.18903,153048
8.19528,151279
8.20155,138172
8.20780,141564
8.21405,143735
8.22032,155315
8.22657,196920
8.23282,279451
8.23908,381248
8.24533,395986
8.25158,334315
8.25785,267350
8.26410,229900
8.27035,216451
8.27660,211750
8.28287,228066
8.28912,246952
8.29537,254885
8.30163,224957
8.30788,181963
8.31413,142249
8.32040,125726
8.32665,121501
8.33290,128184
8.33917,135909
8.34542,138863
8.35167,141200
8.35793,149131
8.36418,159519
8.37043,162688
8.37670,152765
8.38295,144591
8.38920,142939
8.39547,183400
8.40172,312749
8.40797,571978
8.41423,776902
8.42048,690844
8.42673,442983
8.43300,281470
8.43925,250822
8.44550,291126
8.45177,346544
8.45802,377726
8.46427,335088
8.47053,255418
8.47678,201155
8.48303,175998
8.48930,166096
8.49555,173767
8.50180,185151
8.50805,205760
8.51432,211590
8.52057,193960
8.52682,163665
8.53308,143231
8.53933,127580
8.54558,120067
8.55185,132435
8.55810,162713
8.56435,257542
8.57062,453116
8.57687,746073
8.58312,1212321
8.58938,1850843
8.59563,2288915
8.60188,2145399
8.60815,2216165
8.61440,4133764
8.62065,9548095
8.62692,1.685779E+07
8.63317,2.141769E+07
8.63942,1.848017E+07
8.64568,9608220
8.65193,2796414
8.65818,635293
8.66445,287114
8.67070,242186
8.67695,223126
8.68322,217858
8.68947,238831
8.69572,265965
8.70198,269695
8.70823,267708
8.71448,263166
8.72073,253946
8.72700,230142
8.73325,204476
8.73950,202945
8.74577,216215
8.75202,239339
8.75827,220741
8.76453,172307
8.77078,141465
8.77703,129472
8.78330,133047
8.78955,131116
8.79580,127733
8.80207,119342
8.80832,115303
8.81457,118447
8.82083,124007
8.82708,177817
8.83333,417396
8.83960,1138104
8.84585,2750607
8.85210,5043560
8.85837,7465744
8.86462,8402789
8.87087,6862196
8.87713,5028488
8.88338,4665079
8.88963,5649348
8.89590,6836482
8.90215,7424464
8.90840,6169760
8.91467,2892304
8.92092,1006104
8.92717,478161
8.93342,290018
8.93968,209701
8.94593,190074
8.95218,199744
8.95845,235175
8.96470,286990
8.97095,338907
8.97722,368231
8.98347,385883
8.98972,432723
8.99598,553341
9.00223,774041
9.00848,991113
9.01475,1037294
9.02100,860506
9.02725,652510
9.03352,704679
9.03977,1189993
9.04602,1765898
9.05228,1823305
9.05853,1228114
9.06478,651509
9.07105,339483
9.07730,244203
9.08355,213779
9.08982,215073
9.09607,225930
9.10232,242106
9.10858,219972
9.11483,202526
9.12108,169549
9.12735,161926
9.13360,184842
9.13985,207779
9.14612,231215
9.15237,254621
9.15862,291203
9.16487,355486
9.17113,384815
9.17738,389558
9.18363,409871
9.18990,474760
9.19615,530732
9.20240,476412
9.20867,347933
9.21492,233854
9.22117,180906
9.22743,156360
9.23368,169822
9.23993,227344
9.24620,298100
9.25245,332943
9.25870,294084
9.26497,219796
9.27122,156055
9.27747,138821
9.28373,139802
9.28998,171375
9.29623,264830
9.30250,384924
9.30875,497244
9.31500,567163
9.32127,623304
9.32752,639579
9.33377,588835
9.34003,682212
9.34628,1001371
9.35253,1348949
9.35880,1330173
9.36505,943329
9.37130,629656
9.37755,998527
9.38382,3418198
9.39007,9025650
9.39632,1.642892E+07
9.40258,2.035083E+07
9.40883,1.80429E+07
9.41508,1.016091E+07
9.42135,3335051
9.42760,1158801
9.43385,1852704
9.44012,5951038
9.44637,1.538943E+07
9.45262,2.83857E+07
9.45888,3.792805E+07
9.46513,3.875089E+07
9.47138,3.036123E+07
9.47765,1.473357E+07
9.48390,4016205
9.49015,987108
9.49642,411360
9.50267,284421
9.50892,250468
9.51518,244813
9.52143,243459
9.52768,234117
9.53395,223409
9.54020,219100
9.54645,223373
9.55272,219332
9.55897,212437
9.56522,214830
9.57148,235201
9.57773,250517
9.58398,247266
9.59023,241736
9.59650,222161
9.60275,226651
9.60900,253450
9.61527,292335
9.62152,285699
9.62777,247049
9.63403,200159
9.64028,176444
9.64653,169299
9.65280,177097
9.65905,183294
9.66530,165106
9.67157,196595
9.67782,480259
9.68407,1843362
9.69033,5805509
9.69658,1.253939E+07
9.70283,1.839721E+07
9.70910,1.95228E+07
9.71535,1.339649E+07
9.72160,5717603
9.72787,3458399
9.73412,5064291
9.74037,7214802
9.74663,7131080
9.75288,4596009
9.75913,2019216
9.76540,700461
9.77165,323469
9.77790,243757
9.78417,207145
9.79042,181782
9.79667,165982
9.80293,157237
9.80918,150822
9.81543,154647
9.82168,150464
9.82795,151214
9.83420,156179
9.84045,185143
9.84672,256797
9.85297,552346
9.85922,1823276
9.86548,5562439
9.87173,1.204667E+07
9.87798,1.864858E+07
9.88425,2.086123E+07
9.89050,1.510697E+07
9.89675,6646961
9.90302,2765024
9.90927,2446718
9.91552,2542534
9.92178,1886571
9.92803,979234
9.93428,429132
9.94055,243433
9.94680,218228
9.95305,254427
9.95932,374878
9.96557,630793
9.97182,1036774
9.97808,1353673
9.98433,1423920
9.99058,1361975
9.99685,1185828
10.00310,884874
10.00935,589926
10.01562,397639
10.02187,312541
10.02812,267222
10.03437,228274
10.04063,206873
10.04688,202885
10.05313,200647
10.05940,185723
10.06565,164282
10.07190,152331
10.07817,155278
10.08442,167904
10.09067,192643
10.09693,224330
10.10318,250789
10.10943,279852
10.11570,308047
10.12195,319118
10.12820,276347
10.13447,213801
10.14072,178122
10.14697,158561
10.15323,153783
10.15948,153246
10.16573,156618
10.17200,157223
10.17825,173414
10.18450,193704
10.19077,198757
10.19702,187929
10.20327,172196
10.20953,182125
10.21578,269964
10.22203,518985
10.22830,940680
10.23455,1352335
10.24080,1624199
10.24705,1564821
10.25332,1141632
10.25957,708775
10.26582,439069
10.27208,309247
10.27833,271767
10.28458,309091
10.29085,408303
10.29710,497890
10.30335,471026
10.30962,352309
10.31587,267395
10.32212,264709
10.32838,372803
10.33463,572251
10.34088,717938
10.34715,648594
10.35340,448303
10.35965,283359
10.36592,222733
10.37217,199996
10.37842,185005
10.38468,163288
10.39093,145161
10.39718,137661
10.40345,125796
10.40970,119866
10.41595,124309
10.42222,139591
10.42847,153669
10.43472,166939
10.44098,166526
10.44723,172609
10.45348,179358
10.45975,185832
10.46600,175303
10.47225,180737
10.47850,234160
10.48477,325444
10.49102,409551
10.49727,380191
10.50353,293254
10.50978,204048
10.51603,159138
10.52230,160787
10.52855,191259
10.53480,258929
10.54107,312056
10.54732,315832
10.55357,275604
10.55983,226812
10.56608,205492
10.57233,201320
10.57860,226298
10.58485,239865
10.59110,245560
10.59737,312992
10.60362,752494
10.60987,2507847
10.61613,6521732
10.62238,1.232102E+07
10.62863,1.641529E+07
10.63490,1.519877E+07
10.64115,8827401
10.64740,3053578
10.65367,847325
10.65992,300207
10.66617,212500
10.67243,224949
10.67868,247355
10.68493,235892
10.69118,210436
10.69745,179852
10.70370,158115
10.70995,161582
10.71622,169301
10.72247,185110
10.72872,192865
10.73498,200927
10.74123,202768
10.74748,203652
10.75375,195802
10.76000,186369
10.76625,184340
10.77252,198259
10.77877,201832
10.78502,199402
10.79128,191442
10.79753,196533
10.80378,213726
10.81005,294975
10.81630,405253
10.82255,481439
10.82882,442533
10.83507,320131
10.84132,226198
10.84758,182962
10.85383,176505
10.86008,194757
10.86635,198554
10.87260,206276
10.87885,198253
10.88512,196635
10.89137,199290
10.89762,203226
10.90388,220396
10.91013,218817
10.91638,203548
10.92263,195393
10.92890,208574
10.93515,209812
10.94140,196649
10.94767,181097
10.95392,181075
10.96017,282640
10.96643,797203
10.97268,2725133
10.97893,7572861
10.98520,1.518184E+07
10.99145,2.306326E+07
10.99770,2.669709E+07
11.00397,2.23137E+07
11.01022,1.110693E+07
11.01647,3305522
11.02273,737791
11.02898,308610
11.03523,283107
11.04150,303967
11.04775,327855
11.05400,360688
11.06027,414325
11.06652,417870
11.07277,352926
11.07903,257990
11.08528,197742
11.09153,187150
11.09780,205706
11.10405,231585
11.11030,227048
11.11657,214830
11.12282,214391
11.12907,226643
11.13532,247513
11.14158,254988
11.14783,259817
11.15408,317420
11.16035,469633
11.16660,685316
11.17285,811318
11.17912,713228
11.18537,481434
11.19162,296198
11.19788,222382
11.20413,217829
11.21038,262617
11.21665,296523
11.22290,315052
11.22915,302231
11.23542,274725
11.24167,247275
11.24792,273408
11.25418,300177
11.26043,299050
11.26668,280731
11.27295,286283
11.27920,315474
11.28545,334495
11.29172,308956
11.29797,265632
11.30422,218124
11.31048,220891
11.31673,311136
11.32298,522399
11.32925,780001
11.33550,919324
11.34175,740454
11.34802,457169
11.35427,258524
11.36052,185529
11.36677,175118
11.37303,186728
11.37928,172075
11.38553,168224
11.39180,163887
11.39805,162931
11.40430,168341
11.41057,171115
11.41682,163193
11.42307,165790
11.42933,190214
11.43558,275018
11.44183,496775
11.44810,872567
11.45435,1135510
11.46060,1111435
11.46687,788950
11.47312,457327
11.47937,319369
11.48563,287654
11.49188,261643
11.49813,232369
11.50440,206637
11.51065,192171
11.51690,186882
11.52317,184381
11.52942,180758
11.53567,182583
11.54193,187127
11.54818,188969
11.55443,179371
11.56070,165517
11.56695,154335
11.57320,153060
11.57945,156678
11.58572,164626
11.59197,168133
11.59822,173111
11.60448,170717
11.61073,170288
11.61698,167008
11.62325,166772
11.62950,173693
11.63575,176899
11.64202,182614
11.64827,203935
11.65452,234425
11.66078,238588
11.66703,239286
11.67328,212025
11.67955,185654
11.68580,168803
11.69205,182902
11.69832,216421
11.70457,312624
11.71082,487155
11.71708,678487
11.72333,756459
11.72958,637610
11.73585,444871
11.74210,306767
11.74835,234740
11.75462,206307
11.76087,200040
11.76712,235948
11.77338,271081
11.77963,283700
11.78588,287146
11.79215,290014
11.79840,298106
11.80465,294130
11.81090,280169
11.81717,257918
11.82342,264747
11.82967,364772
11.83593,561865
11.84218,739280
11.84843,742113
11.85470,566075
11.86095,376108
11.86720,283419
11.87347,241878
11.87972,263926
11.88597,341567
11.89223,455389
11.89848,528148
11.90473,509694
11.91100,426190
11.91725,327178
11.92350,278859
11.92977,263154
11.93602,334988
11.94227,589129
11.94853,1337609
11.95478,2854998
11.96103,5300748
11.96730,7307526
11.97355,6974214
11.97980,4517159
11.98607,1928061
11.99232,814941
11.99857,618247
12.00483,650905
12.01108,664960
12.01733,576387
12.02358,517449
12.02985,497793
12.03610,627115
12.04235,923829
12.04862,1302345
12.05487,1673045
12.06112,1705533
12.06738,1417861
12.07363,963138
12.07988,660898
12.08615,556803
12.09240,534813
12.09865,541597
12.10492,503119
12.11117,421002
12.11742,343403
12.12368,297129
12.12993,276819
12.13618,275156
12.14245,264552
12.14870,249751
12.15495,235743
12.16122,225568
12.16747,219079
12.17372,226257
12.17998,245758
12.18623,298373
12.19248,384649
12.19875,513474
12.20500,626275
12.21125,771060
12.21752,878766
12.22377,851639
12.23002,741213
12.23627,618168
12.24253,610354
12.24878,804996
12.25503,1287959
12.26130,2053678
12.26755,3136092
12.27380,4248410
12.28007,4341474
12.28632,3267307
12.29257,1805551
12.29883,809525
12.30508,399510
12.31133,272307
12.31760,230657
12.32385,217070
12.33010,217364
12.33637,239072
12.34262,275721
12.34887,331980
12.35513,389251
12.36138,389826
12.36763,379608
12.37390,365818
12.38015,396592
12.38640,470275
12.39267,525880
12.39892,488256
12.40517,399259
12.41143,320710
12.41768,284836
12.42393,288502
12.43020,326248
12.43645,381123
12.44270,395282
12.44897,363938
12.45522,313291
12.46147,297247
12.46772,321881
12.47398,415635
12.48023,636202
12.48648,1007810
12.49275,1365269
12.49900,1520975
12.50525,1246626
12.51152,781647
12.51777,441532
12.52402,290416
12.53028,284169
12.53653,331135
12.54278,410713
12.54905,458545
12.55530,438080
12.56155,374671
12.56782,436070
12.57407,711212
12.58032,1371574
12.58658,2502515
12.59283,3488645
12.59908,3657777
12.60535,3069044
12.61160,2627332
12.61785,3067763
12.62412,4347420
12.63037,6122707
12.63662,8493889
12.64288,1.206384E+07
12.64913,1.640372E+07
12.65538,2.19301E+07
12.66165,2.828683E+07
12.66790,3.379337E+07
12.67415,3.679218E+07
12.68040,3.68539E+07
12.68667,3.329202E+07
12.69292,2.168245E+07
12.69917,6458923
12.70543,1348046
12.71168,837966
12.71793,1032656
12.72420,1214862
12.73045,1227077
12.73670,1302110
12.74297,1388623
12.74922,1385970
12.75547,1189009
12.76173,900715
12.76798,672394
12.77423,547774
12.78050,505147
12.78675,530691
12.79300,568537
12.79927,567852
12.80552,508639
12.81177,436322
12.81803,417417
12.82428,468288
12.83053,534102
12.83680,560726
12.84305,495179
12.84930,434033
12.85557,411412
12.86182,404247
12.86807,405257
12.87433,403126
12.88058,445439
12.88683,588141
12.89308,870779
12.89935,1160712
12.90560,1251800
12.91185,1195093
12.91812,1034392
12.92437,783676
12.93062,584308
12.93688,417219
12.94313,342294
12.94938,308422
12.95565,303540
12.96190,289874
12.96815,277854
12.97442,267753
12.98067,269285
12.98692,287409
12.99318,321705
12.99943,356379
13.00568,392509
13.01195,437430
13.01820,507388
13.02445,660291
13.03072,895049
13.03697,1123862
13.04322,1136956
13.04948,880948
13.05573,594466
13.06198,547206
13.06825,875939
13.07450,1705256
13.08075,3183285
13.08702,4722918
13.09327,4999320
13.09952,3700657
13.10578,2030408
13.11203,1072118
13.11828,682039
13.12453,497405
13.13080,432639
13.13705,400149
13.14330,396549
13.14957,374340
13.15582,359956
13.16207,349274
13.16833,326719
13.17458,301724
13.18083,272250
13.18710,261055
13.19335,255345
13.19960,248115
13.20587,257567
13.21212,262055
13.21837,274029
13.22463,303040
13.23088,344990
13.23713,385200
13.24340,396601
13.24965,400966
13.25590,391338
13.26217,395258
13.26842,410239
13.27467,401014
13.28093,397625
13.28718,472748
13.29343,679304
13.29970,1099187
13.30595,1715939
13.31220,2210253
13.31847,2073745
13.32472,1405889
13.33097,755609
13.33722,427498
13.34348,352060
13.34973,356057
13.35598,363097
13.36225,358984
13.36850,330291
13.37475,326056
13.38102,312509
13.38727,292908
13.39352,277401
13.39978,259689
13.40603,263423
13.41228,270498
13.41855,296611
13.42480,325989
13.43105,385184
13.43732,433440
13.44357,454700
13.44982,430870
13.45608,384494
13.46233,340209
13.46858,305563
13.47485,289464
13.48110,294677
13.48735,301967
13.49362,305394
13.49987,305560
13.50612,310989
13.51238,325776
13.51863,341388
13.52488,370002
13.53115,401586
13.53740,446093
13.54365,602294
13.54990,874169
13.55617,1182962
13.56242,1264950
13.56867,1036765
13.57493,718569
13.58118,595989
13.58743,676130
13.59370,1002364
13.59995,1578814
13.60620,2054115
13.61247,1918332
13.61872,1421560
13.62497,889137
13.63123,617040
13.63748,504369
13.64373,460679
13.65000,459496
13.65625,473817
13.66250,474016
13.66877,457337
13.67502,447811
13.68127,488681
13.68753,569025
13.69378,679926
13.70003,712640
13.70630,635722
13.71255,501505
13.71880,412233
13.72507,383264
13.73132,389035
13.73757,384067
13.74383,409283
13.75008,482224
13.75633,713916
13.76260,1150689
13.76885,1546096
13.77510,1507740
13.78135,1129606
13.78762,737444
13.79387,659204
13.80012,1086441
13.80638,2268169
13.81263,4457885
13.81888,7823797
13.82515,1.241259E+07
13.83140,1.880653E+07
13.83765,2.616661E+07
13.84392,3.041274E+07
13.85017,2.644816E+07
13.85642,1.271937E+07
13.86268,3119094
13.86893,725616
13.87518,413253
13.88145,526489
13.88770,960031
13.89395,1959166
13.90022,3883466
13.90647,7149803
13.91272,1.086278E+07
13.91898,1.370562E+07
13.92523,1.259028E+07
13.93148,7540911
13.93775,2764461
13.94400,849380
13.95025,347608
13.95652,263554
13.96277,253246
13.96902,250087
13.97528,243146
13.98153,243012
13.98778,250953
13.99403,262809
14.00030,284629
14.00655,330463
14.01280,383801
14.01907,394226
14.02532,346253
14.03157,276998
14.03783,220480
14.04408,201573
14.05033,212734
14.05660,230772
14.06285,262601
14.06910,298338
14.07537,338455
14.08162,322903
14.08787,278726
14.09413,244435
14.10038,220723
14.10663,203825
14.11290,198706
14.11915,210754
14.12540,220815
14.13167,214945
14.13792,203453
14.14417,199619
14.15043,195516
14.15668,202947
14.16293,205030
14.16920,194098
14.17545,187248
14.18170,178962
14.18797,177646
14.19422,187785
14.20047,208653
14.20673,243354
14.21298,323713
14.21923,452429
14.22548,614032
14.23175,697854
14.23800,668904
14.24425,552042
14.25052,441788
14.25677,446051
14.26302,647308
14.26928,1202766
14.27553,2017263
14.28178,2586436
14.28805,2102257
14.29430,1221541
14.30055,595489
14.30682,376039
14.31307,353732
14.31932,438737
14.32558,568963
14.33183,670997
14.33808,628131
14.34435,472820
14.35060,350870
14.35685,287010
14.36312,263213
14.36937,261415
14.37562,263476
14.38188,288915
14.38813,324743
14.39438,415356
14.40065,655029
14.40690,1328786
14.41315,2786338
14.41942,5291357
14.42567,8025975
14.43192,8430619
14.43817,6619737
14.44443,4367596
14.45068,2974853
14.45693,2215192
14.46320,1643214
14.46945,1417869
14.47570,1436018
14.48197,1484228
14.48822,1324811
14.49447,1002000
14.50073,670753
14.50698,453031
14.51323,351918
14.51950,355434
14.52575,392490
14.53200,420956
14.53827,385983
14.54452,338143
14.55077,313407
14.55703,309776
14.56328,310307
14.56953,306604
14.57580,311245
14.58205,287404
14.58830,261457
14.59457,257648
14.60082,252162
14.60707,275062
14.61333,293312
14.61958,298156
14.62583,298011
14.63210,333961
14.63835,436140
14.64460,601429
14.65087,721695
14.65712,718422
14.66337,602876
14.66962,460926
14.67588,395438
14.68213,398450
14.68838,443469
14.69465,594807
14.70090,757661
14.70715,853842
14.71342,823665
14.71967,826274
14.72592,1043598
14.73218,1593585
14.73843,2419763
14.74468,3062726
14.75095,3319317
14.75720,3621438
14.76345,3912910
14.76972,3534014
14.77597,2349833
14.78222,1115467
14.78848,521273
14.79473,380408
14.80098,393216
14.80725,463953
14.81350,526755
14.81975,507591
14.82602,429725
14.83227,333746
14.83852,265750
14.84478,249777
14.85103,291103
14.85728,374163
14.86355,540667
14.86980,627287
14.87605,574823
14.88230,467748
14.88857,360242
14.89482,305789
14.90107,327299
14.90733,446898
14.91358,699186
14.91983,1028147
14.92610,1190097
14.93235,1132325
14.93860,964271
14.94487,781111
14.95112,708797
14.95737,933721
14.96363,1672380
14.96988,3343123
14.97613,5923403
14.98240,8178449
14.98865,7970635
14.99490,5061160
15.00117,2248934
15.00742,858038
15.01367,459200
15.01993,354074
15.02618,343332
15.03243,345607
15.03870,376762
15.04495,439886
15.05120,459836
15.05747,479069
15.06372,447424
15.06997,418258
15.07623,404785
15.08248,394231
15.08873,424246
15.09500,471797
15.10125,536985
15.10750,584427
15.11375,642898
15.12002,748502
15.12627,908439
15.13252,1059334
15.13878,1220895
15.14503,1379129
15.15128,1562837
15.15755,1966559
15.16380,3352674
15.17005,5803447
15.17632,7934425
15.18257,7963782
15.18882,5524330
15.19508,2706456
15.20133,1114369
15.20758,592471
15.21385,405782
15.22010,311061
15.22635,270941
15.23262,268876
15.23887,271224
15.24512,288500
15.25138,306353
15.25763,341743
15.26388,344994
15.27015,327056
15.27640,303693
15.28265,272319
15.28892,256080
15.29517,251915
15.30142,263112
15.30768,273562
15.31393,300408
15.32018,362199
15.32643,427135
15.33270,447210
15.33895,390933
15.34520,328464
15.35147,294315
15.35772,320725
15.36397,364076
15.37023,370555
15.37648,327513
15.38273,294320
15.38900,264743
15.39525,244744
15.40150,228689
15.40777,221761
15.41402,236488
15.42027,304157
15.42653,431715
15.43278,619117
15.43903,803347
15.44530,1001559
15.45155,1253987
15.45780,1383281
15.46407,1185456
15.47032,821616
15.47657,522745
15.48283,340867
15.48908,275384
15.49533,284619
15.50160,327891
15.50785,443278
15.51410,736203
15.52037,1649605
15.52662,3584157
15.53287,6294553
15.53912,8605258
15.54538,1.166873E+07
15.55163,1.491523E+07
15.55788,1.994018E+07
15.56415,2.103729E+07
15.57040,1.520232E+07
15.57665,5832527
15.58292,1613543
15.58917,672687
15.59542,524349
15.60168,494851
15.60793,522770
15.61418,535277
15.62045,535639
15.62670,497154
15.63295,478828
15.63922,449846
15.64547,404533
15.65172,344344
15.65798,310567
15.66423,299807
15.67048,310503
15.67675,339660
15.68300,359425
15.68925,368556
15.69552,369531
15.70177,367502
15.70802,341195
15.71428,320298
15.72053,291027
15.72678,279035
15.73305,283317
15.73930,299286
15.74555,319787
15.75182,333082
15.75807,320799
15.76432,289243
15.77057,248149
15.77683,220488
15.78308,210354
15.78933,210634
15.79560,216015
15.80185,229196
15.80810,234237
15.81437,243476
15.82062,265139
15.82687,314243
15.83313,433986
15.83938,654782
15.84563,949585
15.85190,1062422
15.85815,885053
15.86440,580102
15.87067,360550
15.87692,287393
15.88317,273923
15.88943,279852
15.89568,264662
15.90193,248736
15.90820,233051
15.91445,218243
15.92070,220537
15.92697,219605
15.93322,222784
15.93947,223585
15.94573,218876
15.95198,215369
15.95823,251266
15.96450,304650
15.97075,336175
15.97700,309845
15.98325,250641
15.98952,209166
15.99577,188834
16.00202,213399
16.00828,281195
16.01453,437911
16.02078,641953
16.02705,814496
16.03330,916154
16.03955,1030997
16.04582,1381362
16.05207,1776005
16.05832,1770496
16.06458,1426158
16.07083,938557
16.07708,832193
16.08335,1067877
16.08960,1390827
16.09585,1487124
16.10212,1322156
16.10837,1343609
16.11462,1950374
16.12088,3280420
16.12713,4730705
16.13338,4842518
16.13965,3489095
16.14590,1730307
16.15215,770462
16.15842,445250
16.16467,369329
16.17092,363319
16.17718,355898
16.18343,362659
16.18968,413568
16.19593,510369
16.20220,530010
16.20845,476437
16.21470,375459
16.22097,400141
16.22722,624377
16.23347,1010978
16.23973,1288589
16.24598,1231676
16.25223,846796
16.25850,503862
16.26475,354702
16.27100,294751
16.27727,264478
16.28352,257011
16.28977,274816
16.29603,351582
16.30228,509985
16.30853,639880
16.31480,694992
16.32105,588236
16.32730,419440
16.33357,303240
16.33982,258383
16.34607,252604
16.35233,255951
16.35858,253296
16.36483,253607
16.37110,237097
16.37735,222368
16.38360,213959
16.38987,212241
16.39612,210458
16.40237,214947
16.40863,229293
16.41488,233424
16.42113,236043
16.42738,269189
16.43365,355100
16.43990,538273
16.44615,837631
16.45242,998282
16.45867,912774
16.46492,810229
16.47118,704719
16.47743,615317
16.48368,509299
16.48995,411188
16.49620,365220
16.50245,362108
16.50872,397924
16.51497,453227
16.52122,543570
16.52748,601958
16.53373,593322
16.53998,553752
16.54625,514366
16.55250,475032
16.55875,436254
16.56502,384647
16.57127,367748
16.57752,355248
16.58378,364209
16.59003,364113
16.59628,373438
16.60255,375945
16.60880,374270
16.61505,376754
16.62132,389443
16.62757,410406
16.63382,444424
16.64007,490975
16.64633,527016
16.65258,537947
16.65883,509922
16.66510,432252
16.67135,405175
16.67760,399517
16.68387,420771
16.69012,422313
16.69637,421441
16.70263,379523
16.70888,343906
16.71513,313328
16.72140,313355
16.72765,322131
16.73390,327113
16.74017,350884
16.74642,378819
16.75267,440553
16.75893,575894
16.76518,951161
16.77143,1603853
16.77770,2654798
16.78395,3344540
16.79020,3335200
16.79647,2962539
16.80272,2899301
16.80897,3706767
16.81523,4584408
16.82148,6164194
16.82773,8682327
16.83400,1.254782E+07
16.84025,1.705313E+07
16.84650,1.82173E+07
16.85277,1.581303E+07
16.85902,1.062377E+07
16.86527,5942143
16.87152,4031809
16.87778,3641049
16.88403,3921605
16.89028,4167876
16.89655,4204829
16.90280,3729462
16.90905,3237371
16.91532,2866590
16.92157,3013879
16.92782,3707948
16.93408,4412377
16.94033,4727405
16.94658,4822726
16.95285,4899825
16.95910,4945174
16.96535,4474174
16.97162,3589415
16.97787,2410482
16.98412,1560579
16.99038,1204504
16.99663,1130480
17.00288,1511610
17.00915,2748357
17.01540,5918594
17.02165,1.117017E+07
17.02792,1.780754E+07
17.03417,2.527067E+07
17.04042,3.131951E+07
17.04668,3.881807E+07
17.05293,4.807098E+07
17.05918,5.290374E+07
17.06545,5.30953E+07
17.07170,5.096774E+07
17.07795,4.749485E+07
17.08420,4.378667E+07
17.09047,4.055898E+07
17.09672,3.856314E+07
17.10297,3.804698E+07
17.10923,4.351292E+07
17.11548,4.016987E+07
17.12173,1.613624E+07
17.12800,1.556864E+07
17.13425,1.472056E+07
17.14050,1.186138E+07
17.14677,1.03517E+07
17.15302,1.359989E+07
17.15927,2.237864E+07
17.16553,3.491019E+07
17.17178,4.576302E+07
17.17803,5.168202E+07
17.18430,5.35078E+07
17.19055,5.278824E+07
17.19680,3.618013E+07
17.20307,9409099
17.20932,4299836
17.21557,5019890
17.22183,6258542
17.22808,7760486
17.23433,1.149166E+07
17.24060,2.00929E+07
17.24685,3.185252E+07
17.25310,4.437154E+07
17.25937,5.104937E+07
17.26562,5.266405E+07
17.27187,4.60385E+07
17.27813,2.486801E+07
17.28438,1.071564E+07
17.29063,1.167172E+07
17.29688,1.775005E+07
17.30315,2.287243E+07
17.30940,2.216389E+07
17.31565,1.588314E+07
17.32192,7641909
17.32817,3325066
17.33442,1807901
17.34068,1436248
17.34693,1236209
17.35318,1067114
17.35945,973193
17.36570,912268
17.37195,874430
17.37822,860203
17.38447,897259
17.39072,923052
17.39698,1026055
17.40323,1205935
17.40948,1424226
17.41575,1578536
17.42200,1578405
17.42825,1547757
17.43452,1657369
17.44077,2207708
17.44702,3534086
17.45328,5455551
17.45953,7204914
17.46578,6841865
17.47205,4830850
17.47830,2583054
17.48455,1387758
17.49082,1000183
17.49707,915681
17.50332,956830
17.50958,1110289
17.51583,1304202
17.52208,1414076
17.52833,1318389
17.53460,1078196
17.54085,859670
17.54710,818778
17.55337,978810
17.55962,1581936
17.56587,3205071
17.57213,6647123
17.57838,1.152594E+07
17.58463,1.483188E+07
17.59090,1.405159E+07
17.59715,9237307
17.60340,4575680
17.60967,1990812
17.61592,1493976
17.62217,1703142
17.62843,1804196
17.63468,1522716
17.64093,1151028
17.64720,906344
17.65345,748012
17.65970,665553
17.66597,627584
17.67222,601314
17.67847,608951
17.68473,633474
17.69098,687384
17.69723,753662
17.70350,787298
17.70975,761385
17.71600,695376
17.72227,622952
17.72852,575980
17.73477,577781
17.74102,601492
17.74728,665214
17.75353,697835
17.75978,756155
17.76605,849458
17.77230,1027972
17.77855,1346987
17.78482,1785341
17.79107,2479987
17.79732,3899243
17.80358,6139122
17.80983,8978888
17.81608,1.062316E+07
17.82235,9786969
17.82860,6898298
17.83485,4033684
17.84112,2466806
17.84737,1721648
17.85362,1584945
17.85988,2606134
17.86613,5669275
17.87238,1.146824E+07
17.87865,1.785348E+07
17.88490,1.99443E+07
17.89115,1.523328E+07
17.89742,7022306
17.90367,2529956
17.90992,1119917
17.91618,764036
17.92243,705051
17.92868,667969
17.93495,666427
17.94120,638419
17.94745,623744
17.95372,641831
17.95997,672071
17.96622,703379
17.97247,701647
17.97873,705832
17.98498,744357
17.99123,826652
17.99750,1018109
18.00375,1299801
18.01000,1526780
18.01627,1563559
18.02252,1353413
18.02877,1061532
18.03503,838402
18.04128,735002
18.04753,639970
18.05380,597993
18.06005,529455
18.06630,485762
18.07257,473588
18.07882,481223
18.08507,532336
18.09133,605418
18.09758,682968
18.10383,705692
18.11010,676892
18.11635,697575
18.12260,925444
18.12887,1613835
18.13512,2921491
18.14137,4801554
18.14763,6046597
18.15388,5042569
18.16013,3262328
18.16640,1585735
18.17265,856844
18.17890,639160
18.18515,561300
18.19142,516506
18.19767,497750
18.20392,515617
18.21018,606468
18.21643,714837
18.22268,795539
18.22895,763308
18.23520,619622
18.24145,515491
18.24772,470155
18.25397,452574
18.26022,484727
18.26648,544461
18.27273,642922
18.27898,716181
18.28525,904559
18.29150,1359804
18.29775,2092244
18.30402,2797546
18.31027,3073955
18.31652,2674638
18.32278,2119692
18.32903,1454082
18.33528,892368
18.34155,557553
18.34780,433479
18.35405,412197
18.36032,430154
18.36657,444534
18.37282,451894
18.37908,495715
18.38533,581962
18.39158,653942
18.39785,652956
18.40410,661858
18.41035,658918
18.41660,675439
18.42287,621106
18.42912,534895
18.43537,449672
18.44163,398578
18.44788,371867
18.45413,353868
18.46040,334348
18.46665,330739
18.47290,337543
18.47917,328284
18.48542,315879
18.49167,299569
18.49793,305130
18.50418,298797
18.51043,307415
18.51670,311521
18.52295,319773
18.52920,318425
18.53547,317210
18.54172,336057
18.54797,348528
18.55423,357160
18.56048,358865
18.56673,357917
18.57300,340788
18.57925,332290
18.58550,331588
18.59177,354312
18.59802,422573
18.60427,573253
18.61053,823426
18.61678,1037888
18.62303,945252
18.62928,737905
18.63555,562052
18.64180,493273
18.64805,467192
18.65432,442151
18.66057,399191
18.66682,370944
18.67308,357356
18.67933,343060
18.68558,333422
18.69185,324307
18.69810,338301
18.70435,384291
18.71062,447275
18.71687,492018
18.72312,519008
18.72938,444702
18.73563,389535
18.74188,348204
18.74815,344216
18.75440,366847
18.76065,361629
18.76692,351092
18.77317,330048
18.77942,308861
18.78568,298585
18.79193,284418
18.79818,276533
18.80445,275565
18.81070,297553
18.81695,312631
18.82322,322650
18.82947,317544
18.83572,317503
18.84197,306021
18.84823,312073
18.85448,381678
18.86073,608960
18.86700,1231725
18.87325,2649426
18.87950,6317034
18.88577,1.429759E+07
18.89202,2.741511E+07
18.89827,4.294568E+07
18.90453,5.424138E+07
18.91078,5.793089E+07
18.91703,5.607113E+07
18.92330,4.339913E+07
18.92955,1.642022E+07
18.93580,3633280
18.94207,1056718
18.94832,647560
18.95457,517353
18.96083,436284
18.96708,371943
18.97333,334057
18.97960,314138
18.98585,307126
18.99210,306943
18.99837,326172
19.00462,333328
19.01087,356312
19.01713,361845
19.02338,357767
19.02963,327409
19.03590,322435
19.04215,329418
19.04840,376245
19.05467,369812
19.06092,357741
19.06717,342489
19.07342,350436
19.07968,397412
19.08593,450932
19.09218,481137
19.09845,499052
19.10470,473842
19.11095,411793
19.11722,370452
19.12347,361150
19.12972,367744
19.13598,384664
19.14223,381303
19.14848,356260
19.15475,345722
19.16100,311106
19.16725,297852
19.17352,285002
19.17977,286764
19.18602,297050
19.19228,306165
19.19853,303509
19.20478,307444
19.21105,294974
19.21730,285981
19.22355,276785
19.22982,260137
19.23607,254740
19.24232,247223
19.24858,243921
19.25483,244089
19.26108,237441
19.26735,230074
19.27360,227782
19.27985,239492
19.28610,256541
19.29237,256889
19.29862,261344
19.30487,263430
19.31113,252429
19.31738,232476
19.32363,231522
19.32990,239269
19.33615,263072
19.34240,306135
19.34867,341204
19.35492,361678
19.36117,341906
19.36743,324471
19.37368,319315
19.37993,301535
19.38620,301245
19.39245,320141
19.39870,362076
19.40497,375297
19.41122,361795
19.41747,325633
19.42373,301782
19.42998,281132
19.43623,273236
19.44250,294751
19.44875,302144
19.45500,302893
19.46127,293638
19.46752,271213
19.47377,257768
19.48003,254619
19.48628,263846
19.49253,284207
19.49878,304640
19.50505,310167
19.51130,314006
19.51755,322794
19.52382,324885
19.53007,311993
19.53632,333442
19.54258,385556
19.54883,453682
19.55508,486022
19.56135,460647
19.56760,389919
19.57385,318945
19.58012,277051
19.58637,260744
19.59262,263416
19.59888,266790
19.60513,259410
19.61138,255020
19.61765,258242
19.62390,273327
19.63015,311761
19.63642,362161
19.64267,368168
19.64892,350394
19.65518,318543
19.66143,320906
19.66768,370295
19.67395,457949
19.68020,536743
19.68645,528584
19.69272,460935
19.69897,403889
19.70522,379176
19.71148,375926
19.71773,369043
19.72398,359155
19.73023,359380
19.73650,374813
19.74275,361215
19.74900,349942
19.75527,330948
19.76152,322046
19.76777,332566
19.77403,345722
19.78028,341907
19.78653,350049
19.79280,390549
19.79905,457740
19.80530,497755
19.81157,459397
19.81782,368323
19.82407,298345
19.83033,256907
19.83658,242875
19.84283,249629
19.84910,269784
19.85535,320364
19.86160,375491
19.86787,419294
19.87412,427695
19.88037,367569
19.88663,322397
19.89288,310713
19.89913,421750
19.90540,865231
19.91165,2154748
19.91790,4595680
19.92417,7309716
19.93042,7991284
19.93667,5817940
19.94292,2948991
19.94918,1210854
19.95543,588357
19.96168,543392
19.96795,702066
19.97420,919980
19.98045,1064212
19.98672,1034771
19.99297,880814
19.99922,667478
20.00548,485311
20.01173,375133
20.01798,338961
20.02425,319502
20.03050,310236
20.03675,328386
20.04302,359265
20.04927,397002
20.05552,403175
20.06178,369251
20.06803,316019
20.07428,290059
20.08055,283923
20.08680,309625
20.09305,341086
20.09932,362744
20.10557,343738
20.11182,315571
20.11808,277546
20.12433,268754
20.13058,274169
20.13685,275020
20.14310,278625
20.14935,276597
20.15562,268714
20.16187,268594
20.16812,273251
20.17437,265376
20.18063,263668
20.18688,277157
20.19313,293151
20.19940,331199
20.20565,377647
20.21190,430780
20.21817,505837
20.22442,589190
20.23067,609641
20.23693,551769
20.24318,474130
20.24943,416110
20.25570,349677
20.26195,334546
20.26820,302543
20.27447,305468
20.28072,343607
20.28697,505214
20.29323,901857
20.29948,1517159
20.30573,2015852
20.31200,1997168
20.31825,1515430
20.32450,907179
20.33077,541443
20.33702,403191
20.34327,414151
20.34953,426939
20.35578,415846
20.36203,370340
20.36830,335769
20.37455,324285
20.38080,322984
20.38705,322978
20.39332,323646
20.39957,339243
20.40582,380337
20.41208,441324
20.41833,589266
20.42458,912347
20.43085,1647476
20.43710,2640621
20.44335,3433461
20.44962,3330652
20.45587,2326595
20.46212,1362258
20.46838,871181
20.47463,893042
20.48088,1141169
20.48715,1333257
20.49340,1210211
20.49965,917539
20.50592,648177
20.51217,523882
20.51842,481582
20.52468,461488
20.53093,474448
20.53718,513388
20.54345,615468
20.54970,810837
20.55595,943067
20.56222,879372
20.56847,736513
20.57472,560206
20.58098,510428
20.58723,561768
20.59348,616869
20.59975,596292
20.60600,548114
20.61225,478411
20.61850,406961
20.62477,359045
20.63102,318656
20.63727,305323
20.64353,312659
20.64978,345377
20.65603,372150
20.66230,387065
20.66855,381820
20.67480,363981
20.68107,343848
20.68732,325977
20.69357,326951
20.69983,365564
20.70608,541587
20.71233,933668
20.71860,1553696
20.72485,2046323
20.73110,2023606
20.73737,1580485
20.74362,1004827
20.74987,733308
20.75613,811462
20.76238,1170775
20.76863,1662812
20.77490,1759758
20.78115,1466328
20.78740,1054928
20.79367,727405
20.79992,565652
20.80617,465848
20.81243,397711
20.81868,357771
20.82493,358379
20.83118,382666
20.83745,437423
20.84370,455899
20.84995,455777
20.85622,438972
20.86247,430212
20.86872,411804
20.87498,377667
20.88123,366830
20.88748,368621
20.89375,381397
20.90000,415224
20.90625,446675
20.91252,470019
20.91877,506962
20.92502,573359
20.93128,823683
20.93753,1365772
20.94378,1948287
20.95005,2229142
20.95630,2015723
20.96255,1573965
20.96882,1151696
20.97507,925532
20.98132,729641
20.98758,582106
20.99383,531098
21.00008,655106
21.00635,934655
21.01260,1212541
21.01885,1243833
21.02512,1053683
21.03137,770884
21.03762,590771
21.04387,549585
21.05013,536566
21.05638,512994
21.06263,486118
21.06890,478514
21.07515,522741
21.08140,551749
21.08767,549848
21.09392,460263
21.10017,393053
21.10643,350029
21.11268,347342
21.11893,346076
21.12520,344292
21.13145,335120
21.13770,325025
21.14397,325961
21.15022,326359
21.15647,339836
21.16273,348086
21.16898,362497
21.17523,376296
21.18150,367734
21.18775,353697
21.19400,353153
21.20027,361365
21.20652,354933
21.21277,371109
21.21903,364868
21.22528,349661
21.23153,359187
21.23780,400829
21.24405,458143
21.25030,479066
21.25657,440778
21.26282,402029
21.26907,403305
21.27532,467654
21.28158,526159
21.28783,556916
21.29408,540551
21.30035,458661
21.30660,382439
21.31285,347309
21.31912,356568
21.32537,369163
21.33162,372462
21.33788,362391
21.34413,336412
21.35038,345498
21.35665,416589
21.36290,518669
21.36915,628536
21.37542,669905
21.38167,575699
21.38792,453269
21.39418,379600
21.40043,345981
21.40668,352734
21.41295,381462
21.41920,416083
21.42545,438400
21.43172,443701
21.43797,429511
21.44422,446902
21.45048,534827
21.45673,699694
21.46298,869005
21.46925,957568
21.47550,874049
21.48175,683754
21.48800,585278
21.49427,580600
21.50052,608605
21.50677,605352
21.51303,546396
21.51928,422477
21.52553,352684
21.53180,323815
21.53805,313381
21.54430,321268
21.55057,301215
21.55682,301316
21.56307,317864
21.56933,356530
21.57558,373720
21.58183,385459
21.58810,394220
21.59435,422864
21.60060,433306
21.60687,388159
21.61312,342903
21.61937,298473
21.62563,269155
21.63188,247013
21.63813,237826
21.64440,231591
21.65065,227741
21.65690,230454
21.66317,247297
21.66942,268277
21.67567,300379
21.68193,314187
21.68818,315894
21.69443,303601
21.70070,271834
21.70695,254150
21.71320,239195
21.71945,233452
21.72572,235478
21.73197,238021
21.73822,249114
21.74448,266892
21.75073,286706
21.75698,296748
21.76325,294348
21.76950,297520
21.77575,305989
21.78202,346503
21.78827,414541
21.79452,483997
21.80078,482521
21.80703,491401
21.81328,485746
21.81955,457058
21.82580,414193
21.83205,378901
21.83832,376955
21.84457,396875
21.85082,442443
21.85708,478391
21.86333,507353
21.86958,534070
21.87585,491026
21.88210,405197
21.88835,346694
21.89462,373964
21.90087,487502
21.90712,665627
21.91338,757051
21.91963,753074
21.92588,650984
21.93213,538917
21.93840,522756
21.94465,507932
21.95090,414561
21.95717,330086
21.96342,291996
21.96967,307774
21.97593,345749
21.98218,402627
21.98843,427935
21.99470,419424
22.00095,378733
22.00720,343365
22.01347,326121
22.01972,322780
22.02597,328511
22.03223,365736
22.03848,421179
22.04473,505507
22.05100,580411
22.05725,633013
22.06350,694669
22.06977,780248
22.07602,829779
22.08227,810110
22.08853,649333
22.09478,531123
22.10103,443062
22.10730,417265
22.11355,413920
22.11980,443613
22.12607,468251
22.13232,472604
22.13857,416309
22.14482,356185
22.15108,334009
22.15733,331531
22.16358,342495
22.16985,360996
22.17610,376212
22.18235,380710
22.18862,388412
22.19487,379746
22.20112,357043
22.20738,324942
22.21363,305841
22.21988,290783
22.22615,299885
22.23240,322145
22.23865,379899
22.24492,480629
22.25117,672995
22.25742,846827
22.26368,882573
22.26993,830813
22.27618,719154
22.28245,683292
22.28870,673518
22.29495,642322
22.30122,566248
22.30747,489240
22.31372,420257
22.31998,382424
22.32623,375627
22.33248,367722
22.33875,385826
22.34500,523855
22.35125,990976
22.35752,1890019
22.36377,3138104
22.37002,3807275
22.37627,3180906
22.38253,1900241
22.38878,937640
22.39503,528603
22.40130,402665
22.40755,378453
22.41380,392893
22.42007,404115
22.42632,443951
22.43257,504078
22.43883,623642
22.44508,783467
22.45133,1039578
22.45760,1263302
22.46385,1396865
22.47010,1232780
22.47637,945512
22.48262,692223
22.48887,547912
22.49513,492553
22.50138,465757
22.50763,424659
22.51390,421943
22.52015,396948
22.52640,413919
22.53267,485300
22.53892,659623
22.54517,948998
22.55143,1094925
22.55768,1104074
22.56393,926091
22.57020,729036
22.57645,580678
22.58270,504494
22.58895,463687
22.59522,433688
22.60147,419962
22.60772,402464
22.61398,396633
22.62023,384821
22.62648,386638
22.63275,375598
22.63900,368579
22.64525,367585
22.65152,364436
22.65777,357763
22.66402,375236
22.67028,419485
22.67653,470035
22.68278,503564
22.68905,509143
22.69530,460004
22.70155,402078
22.70782,362130
22.71407,335367
22.72032,331817
22.72658,338729
22.73283,341173
22.73908,341181
22.74535,368075
22.75160,373182
22.75785,377374
22.76412,393603
22.77037,441488
22.77662,588095
22.78288,1235309
22.78913,3211093
22.79538,7910160
22.80163,1.425899E+07
22.80790,2.173199E+07
22.81415,2.589842E+07
22.82040,2.272004E+07
22.82667,1.207767E+07
22.83292,4223627
22.83917,1528544
22.84543,817738
22.85168,620282
22.85793,575137
22.86420,542326
22.87045,487070
22.87670,458024
22.88297,431790
22.88922,412885
22.89547,405120
22.90173,411231
22.90798,418478
22.91423,421834
22.92050,437933
22.92675,445576
22.93300,467500
22.93927,487796
22.94552,480671
22.95177,472723
22.95803,447738
22.96428,468039
22.97053,537530
22.97680,646343
22.98305,742264
22.98930,718789
22.99557,633991
23.00182,514776
23.00807,425875
23.01433,385860
23.02058,356959
23.02683,359342
23.03308,355158
23.03935,364394
23.04560,385471
23.05185,407042
23.05812,472871
23.06437,657509
23.07062,999057
23.07688,1194429
23.08313,1293015
23.08938,1051437
23.09565,726810
23.10190,502244
23.10815,393793
23.11442,354613
23.12067,334125
23.12692,322483
23.13318,311490
23.13943,308547
23.14568,300905
23.15195,305274
23.15820,294681
23.16445,293688
23.17072,294610
23.17697,303627
23.18322,310589
23.18948,319287
23.19573,330738
23.20198,331702
23.20825,322416
23.21450,310044
23.22075,308610
23.22702,299996
23.23327,294268
23.23952,303227
23.24577,315366
23.25203,318475
23.25828,318122
23.26453,317303
23.27080,307531
23.27705,298766
23.28330,292252
23.28957,312557
23.29582,366187
23.30207,466654
23.30833,629015
23.31458,832063
23.32083,890644
23.32710,780076
23.33335,582612
23.33960,426309
23.34587,369462
23.35212,339120
23.35837,327497
23.36463,320902
23.37088,315574
23.37713,321202
23.38340,333494
23.38965,342683
23.39590,343382
23.40217,338459
23.40842,332058
23.41467,318882
23.42093,316978
23.42718,325267
23.43343,344812
23.43970,402723
23.44595,465655
23.45220,541184
23.45845,607897
23.46472,630205
23.47097,648996
23.47722,715613
23.48348,843620
23.48973,878227
23.49598,871083
23.50225,886083
23.50850,1054360
23.51475,1228216
23.52102,1289755
23.52727,1079184
23.53352,797270
23.53978,573926
23.54603,486980
23.55228,490929
23.55855,551714
23.56480,652012
23.57105,807408
23.57732,936751
23.58357,951451
23.58982,878040
23.59608,733729
23.60233,611931
23.60858,531906
23.61485,475419
23.62110,452804
23.62735,444699
23.63362,471076
23.63987,503140
23.64612,516544
23.65238,500684
23.65863,428577
23.66488,390450
23.67115,364406
23.67740,358412
23.68365,372632
23.68990,383855
23.69617,398161
23.70242,409622
23.70867,472958
23.71493,637156
23.72118,890521
23.72743,1149355
23.73370,1192798
23.73995,1001343
23.74620,756185
23.75247,553884
23.75872,441266
23.76497,397618
23.77123,387823
23.77748,381788
23.78373,389159
23.79000,396377
23.79625,399305
23.80250,425513
23.80877,468141
23.81502,528452
23.82127,541750
23.82753,531543
23.83378,498297
23.84003,452694
23.84630,415200
23.85255,406325
23.85880,403609
23.86507,417253
23.87132,439052
23.87757,508452
23.88383,608649
23.89008,696852
23.89633,719172
23.90258,645644
23.90885,555329
23.91510,499975
23.92135,469627
23.92762,451295
23.93387,446692
23.94012,452113
23.94638,544496
23.95263,949090
23.95888,2001281
23.96515,4218099
23.97140,7690350
23.97765,1.289755E+07
23.98392,1.958687E+07
23.99017,2.724565E+07
23.99642,3.448966E+07
24.00268,3.733653E+07
24.00893,3.427202E+07
24.01518,2.127784E+07
24.02145,9154629
24.02770,3635885
24.03395,1876478
24.04022,1354264
24.04647,1097898
24.05272,941036
24.05898,866131
24.06523,846603
24.07148,866863
24.07775,867376
24.08400,874385
24.09025,1013719
24.09652,1565869
24.10277,3009777
24.10902,5631264
24.11528,8023775
24.12153,9207574
24.12778,7615486
24.13403,4850504
24.14030,2686205
24.14655,1459157
24.15280,979842
24.15907,790883
24.16532,749079
24.17157,771819
24.17783,928337
24.18408,1278051
24.19033,1791768
24.19660,2710426
24.20285,4833548
24.20910,9923776
24.21537,1.762868E+07
24.22162,2.725583E+07
24.22787,3.663858E+07
24.23413,4.360661E+07
24.24038,4.597228E+07
24.24663,4.678187E+07
24.25290,4.644783E+07
24.25915,4.559286E+07
24.26540,4.404742E+07
24.27167,4.393696E+07
24.27792,4.371793E+07
24.28417,1.667853E+07
24.29043,4869667
24.29668,3343844
24.30293,2810250
24.30920,2556430
24.31545,2349438
24.32170,2287138
24.32797,2263285
24.33422,2302891
24.34047,2376391
24.34672,2422343
24.35298,2421894
24.35923,2452235
24.36548,2535907
24.37175,2667182
24.37800,2699944
24.38425,2587199
24.39052,2389205
24.39677,2205691
24.40302,2018762
24.40928,1946118
24.41553,1828053
24.42178,1911658
24.42805,2160457
24.43430,2682430
24.44055,3089635
24.44682,3163325
24.45307,2750835
24.45932,2191359
24.46558,1629127
24.47183,1413654
24.47808,1261868
24.48435,1188401
24.49060,1136229
24.49685,1100332
24.50312,1088157
24.50937,1048219
24.51562,1007074
24.52188,1003622
24.52813,945903
24.53438,935045
24.54065,915318
24.54690,883052
24.55315,860217
24.55942,833202
24.56567,827491
24.57192,826481
24.57817,852150
24.58443,858410
24.59068,842160
24.59693,787721
24.60320,724065
24.60945,683303
24.61570,636991
24.62197,601954
24.62822,590700
24.63447,570355
24.64073,559282
24.64698,536589
24.65323,523075
24.65950,512059
24.66575,502995
24.67200,519602
24.67827,530938
24.68452,567172
24.69077,576211
24.69703,585664
24.70328,600505
24.70953,628590
24.71580,639203
24.72205,594773
24.72830,522893
24.73457,479233
24.74082,458724
24.74707,441787
24.75333,439196
24.75958,473201
24.76583,507121
24.77210,555731
24.77835,534982
24.78460,496238
24.79085,448884
24.79712,407375
24.80337,377035
24.80962,356925
24.81588,352161
24.82213,343187
24.82838,341565
24.83465,325916
24.84090,317342
24.84715,311491
24.85342,308664
24.85967,309276
24.86592,321478
24.87218,349128
24.87843,386151
24.88468,440129
24.89095,491604
24.89720,491238
24.90345,473683
24.90972,460819
24.91597,500808
24.92222,553063
24.92848,558661
24.93473,554500
24.94098,589724
24.94725,668641
24.95350,781344
24.95975,816512
24.96602,685607
24.97227,541618
24.97852,440067
24.98478,379197
24.99103,347879
24.99728,326691
25.00355,330283
25.00980,322552
25.01605,319525
25.02230,331162
25.02857,343866
25.03482,350058
25.04107,358859
25.04733,351721
25.05358,335077
25.05983,325615
25.06610,318231
25.07235,309736
25.07860,313831
25.08487,321526
25.09112,324323
25.09737,323598
25.10363,319595
25.10988,327319
25.11613,311572
25.12240,301296
25.12865,307937
25.13490,308486
25.14117,300141
25.14742,284537
25.15367,286414
25.15993,284775
25.16618,302924
25.17243,351049
25.17870,446785
25.18495,554324
25.19120,615837
25.19747,554315
25.20372,456120
25.20997,353643
25.21623,306482
25.22248,276090
25.22873,263365
25.23498,261486
25.24125,261828
25.24750,263672
25.25375,261250
25.26002,262424
25.26627,262857
25.27252,293752
25.27878,363777
25.28503,485704
25.29128,639021
25.29755,708547
25.30380,659075
25.31005,531623
25.31632,404901
25.32257,331849
25.32882,303903
25.33508,288732
25.34133,283889
25.34758,274511
25.35385,275842
25.36010,281781
25.36635,284974
25.37262,286590
25.37887,287916
25.38512,287721
25.39138,300358
25.39763,324247
25.40388,349517
25.41015,373974
25.41640,376458
25.42265,360513
25.42892,353837
25.43517,351923
25.44142,346254
25.44767,339341
25.45393,332323
25.46018,318208
25.46643,309025
25.47270,310695
25.47895,338266
25.48520,408580
25.49147,528699
25.49772,658441
25.50397,747267
25.51023,713616
25.51648,613764
25.52273,547202
25.52900,562485
25.53525,729146
25.54150,861540
25.54777,893092
25.55402,725623
25.56027,521187
25.56653,387865
25.57278,327884
25.57903,305714
25.58530,287026
25.59155,284292
25.59780,301351
25.60407,312692
25.61032,314372
25.61657,312015
25.62283,305564
25.62908,291911
25.63533,274617
25.64160,271811
25.64785,263117
25.65410,254807
25.66037,248872
25.66662,254813
25.67287,250941
25.67912,254802
25.68538,263687
25.69163,250332
25.69788,244714
25.70415,248057
25.71040,243559
25.71665,238460
25.72292,238174
25.72917,247655
25.73542,257792
25.74168,268775
25.74793,272588
25.75418,266490
25.76045,252532
25.76670,247050
25.77295,247362
25.77922,242759
25.78547,240850
25.79172,233726
25.79798,227229
25.80423,226118
25.81048,221819
25.81675,216358
25.82300,216525
25.82925,218563
25.83552,216663
25.84177,217862
25.84802,217621
25.85428,218500
25.86053,218641
25.86678,217747
25.87305,218460
25.87930,213805
25.88555,211208
25.89180,212803
25.89807,212943
25.90432,210244
25.91057,216632
25.91683,220191
25.92308,228988
25.92933,238094
25.93560,241321
25.94185,247034
25.94810,243784
25.95437,227048
25.96062,222748
25.96687,230066
25.97313,235575
25.97938,240683
25.98563,239132
25.99190,239605
25.99815,224052
26.00440,214207
26.01067,216589
26.01692,220800
26.02317,215740
26.02943,224718
26.03568,222378
26.04193,224537
26.04820,224174
26.05445,227982
26.06070,222139
26.06697,223831
26.07322,221817
26.07947,214791
26.08573,211981
26.09198,197918
26.09823,201255
26.10448,203924
26.11075,199387
26.11700,199285
26.12325,203240
26.12952,202374
26.13577,196433
26.14202,201036
26.14828,197739
26.15453,202140
26.16078,207285
26.16705,203888
26.17330,208562
26.17955,211925
26.18582,210213
26.19207,212191
26.19832,207502
26.20458,200924
26.21083,209702
26.21708,208231
26.22335,205094
26.22960,206926
26.23585,203789
26.24212,203111
26.24837,202343
26.25462,197368
26.26088,204858
26.26713,199569
26.27338,199875
26.27965,207724
26.28590,204793
26.29215,205837
26.29842,204234
26.30467,204792
26.31092,213991
26.31718,209428
26.32343,207243
26.32968,206928
26.33593,206455
26.34220,209993
26.34845,219410
26.35470,237857
26.36097,280444
26.36722,368757
26.37347,512554
26.37973,637726
26.38598,643217
26.39223,546051
26.39850,386977
26.40475,296569
26.41100,253718
26.41727,236622
26.42352,229736
26.42977,231667
26.43603,220174
26.44228,223071
26.44853,223136
26.45480,224669
26.46105,227687
26.46730,231045
26.47357,235123
26.47982,237398
26.48607,235627
26.49233,238815
26.49858,232147
26.50483,230566
26.51110,230423
26.51735,237517
26.52360,251278
26.52987,278363
26.53612,285223
26.54237,270501
26.54862,250017
26.55488,234437
26.56113,223795
26.56738,223956
26.57365,223378
26.57990,215757
26.58615,229604
26.59242,223932
26.59867,248203
26.60492,266358
26.61118,304220
26.61743,311777
26.62368,296584
26.62995,268654
26.63620,251295
26.64245,238616
26.64872,251587
26.65497,266660
26.66122,296216
26.66748,327106
26.67373,338619
26.67998,332793
26.68625,333089
26.69250,352440
26.69875,389321
26.70502,392764
26.71127,367181
26.71752,313758
26.72378,273334
26.73003,256641
26.73628,248090
26.74255,260482
26.74880,301481
26.75505,399004
26.76132,543032
26.76757,651117
26.77382,661629
26.78007,570602
26.78633,469701
26.79258,439297
26.79883,435770
26.80510,406822
26.81135,397039
26.81760,453747
26.82387,661837
26.83012,962887
26.83637,1238289
26.84263,1311431
26.84888,1098151
26.85513,766186
26.86140,501116
26.86765,396089
26.87390,415470
26.88017,505594
26.88642,618625
26.89267,771029
26.89893,1105161
26.90518,2200272
26.91143,5177343
26.91770,1.055907E+07
26.92395,1.793598E+07
26.93020,2.55526E+07
26.93647,3.387588E+07
26.94272,3.702914E+07
26.94897,2.724828E+07
26.95523,1.284654E+07
26.96148,4921701
26.96773,2640979
26.97400,1603616
26.98025,1015455
26.98650,697159
26.99275,561784
26.99902,551601
27.00527,712288
27.01152,1115491
27.01778,1823889
27.02403,2412574
27.03028,2439722
27.03655,1920138
27.04280,1263744
27.04905,826915
27.05532,654463
27.06157,591421
27.06782,570245
27.07408,506290
27.08033,450391
27.08658,406645
27.09285,386357
27.09910,363359
27.10535,351785
27.11162,358919
27.11787,395226
27.12412,496016
27.13038,669843
27.13663,781724
27.14288,838109
27.14915,731767
27.15540,563481
27.16165,446119
27.16792,394329
27.17417,389105
27.18042,387201
27.18668,373587
27.19293,357221
27.19918,354560
27.20545,360354
27.21170,369627
27.21795,365203
27.22420,351717
27.23047,352197
27.23672,343206
27.24297,366963
27.24923,379238
27.25548,393449
27.26173,380956
27.26800,356923
27.27425,339761
27.28050,329138
27.28677,319275
27.29302,312514
27.29927,312180
27.30553,317300
27.31178,322253
27.31803,314574
27.32430,310858
27.33055,323089
27.33680,317192
27.34307,320252
27.34932,327955
27.35557,337166
27.36183,331707
27.36808,333987
27.37433,325519
27.38060,333665
27.38685,345461
27.39310,368063
27.39937,417875
27.40562,482080
27.41187,523663
27.41813,499462
27.42438,443990
27.43063,391442
27.43688,345386
27.44315,313678
27.44940,315724
27.45565,301921
27.46192,291428
27.46817,289813
27.47442,302213
27.48068,304596
27.48693,302338
27.49318,297521
27.49945,295112
27.50570,279254
27.51195,277328
27.51822,292366
27.52447,286445
27.53072,295556
27.53698,301785
27.54323,301378
27.54948,285420
27.55575,291989
27.56200,280679
27.56825,289603
27.57452,281652
27.58077,281889
27.58702,284546
27.59328,281921
27.59953,286512
27.60578,285085
27.61205,279992
27.61830,281665
27.62455,287986
27.63082,286230
27.63707,298915
27.64332,289475
27.64958,285664
27.65583,294701
27.66208,292729
27.66833,290170
27.67460,284529
27.68085,291238
27.68710,299157
27.69337,294695
27.69962,299651
27.70587,296701
27.71213,316856
27.71838,332665
27.72463,331371
27.73090,327617
27.73715,323414
27.74340,319251
27.74967,315836
27.75592,319003
27.76217,325490
27.76843,319899
27.77468,312111
27.78093,305455
27.78720,305968
27.79345,303126
27.79970,290060
27.80597,293768
27.81222,295526
27.81847,285921
27.82473,301412
27.83098,310382
27.83723,312830
27.84350,324989
27.84975,336285
27.85600,364158
27.86227,379216
27.86852,368969
27.87477,360042
27.88102,336878
27.88728,331122
27.89353,324911
27.89978,307868
27.90605,312286
27.91230,306670
27.91855,311577
27.92482,308597
27.93107,299197
27.93732,304946
27.94358,299949
27.94983,306992
27.95608,310108
27.96235,303738
27.96860,304068
27.97485,310127
27.98112,320843
27.98737,332568
27.99362,335668
27.99988,325344
28.00613,325392
28.01238,321961
28.01865,317946
28.02490,315006
28.03115,319303
28.03742,319517
28.04367,310664
28.04992,308457
28.05618,299874
28.06243,312990
28.06868,310290
28.07495,310322
28.08120,302717
28.08745,316837
28.09370,302010
28.09997,304098
28.10622,308391
28.11247,310555
28.11873,310840
28.12498,311463
28.13123,310307
28.13750,314064
28.14375,308616
28.15000,315256
28.15627,317664
28.16252,313707
28.16877,315276
28.17503,308839
28.18128,311225
28.18753,305090
28.19380,302125
28.20005,307967
28.20630,317955
28.21257,321631
28.21882,317863
28.22507,320203
28.23133,319129
28.23758,318782
28.24383,329105
28.25010,325982
28.25635,323625
28.26260,328462
28.26887,330285
28.27512,352068
28.28137,362569
28.28763,359477
28.29388,372582
28.30013,374899
28.30640,382196
28.31265,391009
28.31890,398057
28.32515,404379
28.33142,401794
28.33767,406846
28.34392,408349
28.35018,411612
28.35643,419974
28.36268,429204
28.36895,419491
28.37520,426329
28.38145,433805
28.38772,441547
28.39397,424016
28.40022,412495
28.40648,412370
28.41273,417289
28.41898,403379
28.42525,405293
28.43150,395111
28.43775,378782
28.44402,374903
28.45027,374951
28.45652,360577
28.46278,362901
28.46903,344659
28.47528,353461
28.48155,341050
28.48780,349290
28.49405,336103
28.50032,343026
28.50657,346147
28.51282,327963
28.51908,339474
28.52533,327831
28.53158,335457
28.53783,325680
28.54410,321491
28.55035,331338
28.55660,318875
28.56287,320960
28.56912,326711
28.57537,318723
28.58163,320153
28.58788,325441
28.59413,322131
28.60040,310607
28.60665,323025
28.61290,319738
28.61917,322009
28.62542,326277
28.63167,324759
28.63793,311354
28.64418,323118
28.65043,311868
28.65670,315230
28.66295,307342
28.66920,317994
28.67547,320499
28.68172,312414
28.68797,307030
28.69423,306151
28.70048,317282
28.70673,304636
28.71300,324805
28.71925,324879
28.72550,326769
28.73177,327256
28.73802,320679
28.74427,323018
28.75052,319670
28.75678,315036
28.76303,305106
28.76928,318043
28.77555,313020
28.78180,305513
28.78805,306458
28.79432,303103
28.80057,311229
28.80682,302314
28.81308,300178
28.81933,296503
28.82558,300837
28.83185,314166
28.83810,300946
28.84435,311531
28.85062,311959
28.85687,312034
28.86312,301627
28.86938,299522
28.87563,292609
28.88188,314693
28.88815,306518
28.89440,310202
28.90065,312612
28.90692,302536
28.91317,308311
28.91942,310330
28.92568,297040
28.93193,308012
28.93818,297176
28.94445,297838
28.95070,307229
28.95695,311261
28.96322,305243
28.96947,310897
28.97572,306442
28.98197,297776
28.98823,308258
28.99448,297721
29.00073,306125
29.00700,309784
29.01325,312334
29.01950,311495
29.02577,313003
29.03202,304093
29.03827,299730
29.04453,302197
29.05078,302400
29.05703,310290
29.06330,295188
29.06955,298087
29.07580,295992
29.08207,308678
29.08832,301377
29.09457,301541
29.10083,292548
29.10708,297774
29.11333,302313
29.11960,291021
29.12585,292902
29.13210,293785
29.13837,305294
29.14462,293863
29.15087,292956
29.15713,298517
29.16338,294310
29.16963,293316
29.17590,301526
29.18215,288315
29.18840,302200
29.19465,305643
29.20092,305258
29.20717,295626
29.21342,305965
29.21968,318500
29.22593,322795
29.23218,334117
29.23845,336131
29.24470,336931
29.25095,328070
29.25722,319743
29.26347,305200
29.26972,300416
29.27598,299662
29.28223,301193
29.28848,307354
29.29475,304805
29.30100,295586
29.30725,302542
29.31352,301627
29.31977,302519
29.32602,303517
29.33228,296774
29.33853,300350
29.34478,292488
29.35105,304193
29.35730,291577
29.36355,302787
29.36982,298588
29.37607,299110
29.38232,294473
29.38858,294594
29.39483,302397
29.40108,296959
29.40735,288288
29.41360,287686
29.41985,297461
29.42610,287866
29.43237,294770
29.43862,292546
29.44487,297844
29.45113,295610
29.45738,296737
29.46363,299089
29.46990,293492
29.47615,285061
29.48240,287115
29.48867,298096
29.49492,291743
29.50117,293945
29.50743,293546
29.51368,288022
29.51993,293541
29.52620,297777
29.53245,289167
29.53870,283048
29.54497,284072
29.55122,281755
29.55747,292086
29.56373,293793
29.56998,292932
29.57623,292677
29.58250,297450
29.58875,280836
29.59500,284537
29.60127,292527
29.60752,281086
29.61377,292892
29.62003,281218
29.62628,282252
29.63253,283844
29.63878,282047
29.64505,294612
29.65130,281025
29.65755,276837
29.66382,291503
29.67007,291959
29.67632,291415
29.68258,280518
29.68883,291509
29.69508,280997
29.70135,282153
29.70760,287382
29.71385,279563
29.72012,278692
29.72637,277835
29.73262,287419
29.73888,288277
29.74513,290419
29.75138,277789
29.75765,284292
29.76390,272120
29.77015,285823
29.77642,280967
29.78267,283871
29.78892,288593
29.79518,284911
29.80143,290056
29.80768,280517
29.81395,288559
29.82020,284912
29.82645,281331
29.83272,279213
29.83897,275719
29.84522,277881
29.85148,277189
29.85773,277090
29.86398,287246
29.87023,279670
29.87650,276210
29.88275,288400
29.88900,282849
29.89527,278470
29.90152,287543
29.90777,290371
29.91403,285607
29.92028,288415
29.92653,278925
29.93280,272802
29.93905,279440
29.94530,282992
29.95157,275086
29.95782,283167
29.96407,270334
29.97033,284051
29.97658,281220
29.98283,272920
29.98910,282814
29.99535,286240
30.00160,278826
30.00787,273398
30.01412,273029
30.02037,274675
30.02663,273873
30.03288,270868
30.03913,283444
30.04540,282256
30.05165,279390
30.05790,273969
30.06417,269422
30.07042,281866
30.07667,279308
30.08292,268418
30.08918,269640
30.09543,278375
30.10168,270435
30.10795,267222
30.11420,283628
30.12045,272432
30.12672,277106
30.13297,268127
30.13922,269793
30.14548,276386
30.15173,269376
30.15798,269882
30.16425,277347
30.17050,272207
30.17675,265862
30.18302,279672
30.18927,264894
30.19552,265112
30.20178,267268
30.20803,276470
30.21428,266535
30.22055,263852
30.22680,275718
30.23305,281545
30.23932,265705
30.24557,263693
30.25182,269105
30.25808,264987
30.26433,270905
30.27058,265951
30.27685,269748
30.28310,272948
30.28935,266106
30.29562,266134
30.30187,264830
30.30812,268060
30.31437,273826
30.32063,264922
30.32688,264486
30.33313,274215
30.33940,268995
30.34565,269739
30.35190,263643
30.35817,267349
30.36442,271102
30.37067,264955
30.37693,266319
30.38318,268199
30.38943,271054
30.39570,262641
30.40195,267179
30.40820,273722
30.41447,264988
30.42072,267424
30.42697,270691
30.43323,268490
30.43948,272890
30.44573,261301
30.45200,268487
30.45825,262780
30.46450,269936
30.47077,257352
30.47702,267157
30.48327,260098
30.48953,267511
30.49578,268946
30.50203,261600
30.50830,263537
30.51455,266178
30.52080,269736
30.52705,263176
30.53332,271380
30.53957,262379
30.54582,258462
30.55208,273221
30.55833,270399
30.56458,259483
30.57085,262046
30.57710,271994
30.58335,259462
30.58962,263987
30.59587,260989
30.60212,267584
30.60838,259802
30.61463,258956
30.62088,268610
30.62715,266779
30.63340,269769
30.63965,267715
30.64592,258870
30.65217,268724
30.65842,272073
30.66468,268796
30.67093,271910
30.67718,289522
30.68345,294148
30.68970,291890
30.69595,297783
30.70222,300768
30.70847,301042
30.71472,291237
30.72098,285813
30.72723,278364
30.73348,268661
30.73973,274229
30.74600,271022
30.75225,266119
30.75850,267036
30.76477,265074
30.77102,263100
30.77727,267247
30.78353,260676
30.78978,258014
30.79603,271374
30.80230,256183
30.80855,270522
30.81480,254701
30.82107,266601
30.82732,254257
30.83357,256832
30.83983,267238
30.84608,256172
30.85233,256570
30.85860,257742
30.86485,261972
30.87110,255463
30.87737,261911
30.88362,257931
30.88987,263782
30.89613,262596
30.90238,263974
30.90863,261708
30.91490,258048
30.92115,257426
30.92740,261649
30.93367,268224
30.93992,266938
30.94617,257494
30.95243,264142
30.95868,268132
30.96493,254401
30.97118,265730
30.97745,272254
30.98370,259924
30.98995,270745
30.99622,265063
31.00247,271144
31.00872,273902
31.01498,265349
31.02123,272370
31.02748,268247
31.03375,265316
31.04000,264424
31.04625,257759
31.05252,261917
31.05877,255410
31.06502,262466
31.07128,255180
31.07753,260813
31.08378,257196
31.09005,263434
31.09630,250183
31.10255,249713
31.10882,252303
31.11507,251311
31.12132,250299
31.12758,250525
31.13383,248688
31.14008,254339
31.14635,247951
31.15260,258525
31.15885,257959
31.16512,248322
31.17137,246980
31.17762,259453
31.18387,256097
31.19013,249935
31.19638,257868
31.20263,248618
31.20890,256953
31.21515,253941
31.22140,248055
31.22767,255471
31.23392,255804
31.24017,258689
31.24643,263930
31.25268,255476
31.25893,256305
31.26520,256372
31.27145,254306
31.27770,245804
31.28397,250835
31.29022,246685
31.29647,250893
31.30273,247200
31.30898,245646
31.31523,251968
31.32150,254924
31.32775,253919
31.33400,246303
31.34027,243203
31.34652,250025
31.35277,252633
31.35903,243098
31.36528,248661
31.37153,247940
31.37780,249006
31.38405,248382
31.39030,253880
31.39655,257709
31.40282,252609
31.40907,247751
31.41532,245343
31.42158,257850
31.42783,250173
31.43408,255850
31.44035,258572
31.44660,251732
31.45285,250975
31.45912,249054
31.46537,245746
31.47162,255446
31.47788,252137
31.48413,247210
31.49038,245449
31.49665,249346
31.50290,251023
31.50915,239753
31.51542,242112
31.52167,250407
31.52792,253567
31.53418,251614
31.54043,237637
31.54668,247857
31.55295,247010
31.55920,256048
31.56545,250617
31.57172,243146
31.57797,245705
31.58422,245783
31.59048,252111
31.59673,239100
31.60298,251482
31.60925,249104
31.61550,248031
31.62175,240986
31.62800,251663
31.63427,241858
31.64052,243862
31.64677,240907
31.65303,247689
31.65928,247661
31.66553,252837
31.67180,243196
31.67805,242530
31.68430,248672
31.69057,238477
31.69682,239591
31.70307,248304
31.70933,247618
31.71558,244084
31.72183,245689
31.72810,240146
31.73435,250174
31.74060,243836
31.74687,251643
31.75312,236889
31.75937,244622
31.76563,237405
31.77188,246081
31.77813,239481
31.78440,249750
31.79065,238150
31.79690,243174
31.80317,248017
31.80942,236063
31.81567,237255
31.82193,237360
31.82818,238173
31.83443,246905
31.84068,244947
31.84695,244790
31.85320,237827
31.85945,245160
31.86572,234628
31.87197,235811
31.87822,238383
31.88448,237027
31.89073,243536
31.89698,243444
31.90325,247937
31.90950,245990
31.91575,235751
31.92202,233382
31.92827,243072
31.93452,243225
31.94078,242696
31.94703,238112
31.95328,242245
31.95955,242896
31.96580,237143
31.97205,233858
31.97832,243180
31.98457,239730
31.99082,241729
31.99708,235768
32.00333,242633
32.00958,244779
32.01585,233569
32.02210,242393
32.02835,234242
32.03462,244325
32.04087,233334
32.04712,235230
32.05338,235973
32.05963,239492
32.06588,234708
32.07213,234736
32.07840,244130
32.08465,241870
32.09090,239692
32.09717,231450
32.10342,233189
32.10967,236730
32.11593,240337
32.12218,244743
32.12843,242907
32.13470,238160
32.14095,234921
32.14720,232069
32.15347,234146
32.15972,231709
32.16597,230621
32.17223,239378
32.17848,235981
32.18473,236356
32.19100,229014
32.19725,232301
32.20350,238568
32.20977,233949
32.21602,237332
32.22227,229296
32.22853,231941
32.23478,233998
32.24103,236423
32.24730,240238
32.25355,240121
32.25980,231895
32.26607,238089
32.27232,241331
32.27857,227295
32.28482,241557
32.29108,235881
32.29733,239283
32.30358,230307
32.30985,236767
32.31610,240752
32.32235,225341
32.32862,229070
32.33487,234127
32.34112,238473
32.34738,229489
32.35363,233175
32.35988,234085
32.36615,230686
32.37240,225778
32.37865,226094
32.38492,233979
32.39117,231254
32.39742,229246
32.40368,232951
32.40993,232982
32.41618,233355
32.42245,236899
32.42870,236470
32.43495,228346
32.44122,222880
32.44747,227159
32.45372,236526
32.45998,232286
32.46623,224362
32.47248,226976
32.47875,235439
32.48500,223840
32.49125,231373
32.49752,230133
32.50377,240268
32.51002,233990
32.51627,230161
32.52253,233494
32.52878,233142
32.53503,227842
32.54130,234620
32.54755,237420
32.55380,236707
32.56007,232938
32.56632,229910
32.57257,226257
32.57883,231554
32.58508,230457
32.59133,232810
32.59760,233886
32.60385,222626
32.61010,227235
32.61637,223791
32.62262,228436
32.62887,225080
32.63513,227032
32.64138,220831
32.64763,232765
32.65390,232087
32.66015,223820
32.66640,233073
32.67267,231519
32.67892,224994
32.68517,231945
32.69143,224269
32.69768,228121
32.70393,231789
32.71020,233451
32.71645,225508
32.72270,222020
32.72895,227438
32.73522,220675
32.74147,223080
32.74772,225415
32.75398,229835
32.76023,222978
32.76648,226319
32.77275,230653
32.77900,223869
32.78525,233048
32.79152,230249
32.79777,220476
32.80402,231648
32.81028,226860
32.81653,219614
32.82278,232654
32.82905,223806
32.83530,229251
32.84155,227866
32.84782,225293
32.85407,225280
32.86032,220252
32.86658,221526
32.87283,226399
32.87908,221644
32.88535,230885
32.89160,226485
32.89785,217696
32.90412,220425
32.91037,217397
32.91662,229182
32.92288,226944
32.92913,217521
32.93538,229616
32.94165,221294
32.94790,224786
32.95415,219357
32.96040,218722
32.96667,229260
32.97292,219893
32.97917,223378
32.98543,219337
32.99168,221301
32.99793,229717
33.00420,222263
33.01045,219523
33.01670,230587
33.02297,219558
33.02922,218229
33.03547,221544
33.04173,220941
33.04798,223377
33.05423,223721
33.06050,226939
33.06675,228343
33.07300,223611
33.07927,216884
33.08552,224035
33.09177,228829
33.09803,226192
33.10428,218216
33.11053,222391
33.11680,221063
33.12305,222615
33.12930,226292
33.13557,232424
33.14182,228820
33.14807,231634
33.15433,238284
33.16058,235228
33.16683,244814
33.17308,240299
33.17935,236840
33.18560,236896
33.19185,235669
33.19812,234897
33.20437,225142
33.21062,233057
33.21688,231347
33.22313,217380
33.22938,225359
33.23565,218102
33.24190,217850
33.24815,217689
33.25442,220337
33.26067,217532
33.26692,223537
33.27318,224144
33.27943,224948
33.28568,214765
33.29195,222117
33.29820,219104
33.30445,213702
33.31072,222634
33.31697,225379
33.32322,225131
33.32948,222210
33.33573,218102
33.34198,221802
33.34825,221272
33.35450,221166
33.36075,219807
33.36702,216293
33.37327,223813
33.37952,217092
33.38577,224176
33.39203,220977
33.39828,218640
33.40453,215496
33.41080,220598
33.41705,218320
33.42330,222478
33.42957,216185
33.43582,219804
33.44207,212071
33.44833,212397
33.45458,212765
33.46083,214905
33.46710,217233
33.47335,216009
33.47960,220106
33.48587,219121
33.49212,210168
33.49837,213099
33.50463,220379
33.51088,211362
33.51713,211872
33.52340,215941
33.52965,210222
33.53590,208984
33.54217,212031
33.54842,213119
33.55467,209069
33.56093,217712
33.56718,208119
33.57343,214486
33.57970,213596
33.58595,219870
33.59220,221076
33.59847,215627
33.60472,218857
33.61097,210816
33.61722,208987
33.62348,211037
33.62973,221010
33.63598,214921
33.64225,212625
33.64850,212167
33.65475,211396
33.66102,210805
33.66727,210799
33.67352,216830
33.67978,212363
33.68603,210834
33.69228,210138
33.69855,215342
33.70480,215460
33.71105,211221
33.71732,212946
33.72357,214644
33.72982,217691
33.73608,209875
33.74233,208238
33.74858,206476
33.75485,213880
33.76110,208662
33.76735,214602
33.77362,214233
33.77987,210905
33.78612,207742
33.79238,207293
33.79863,216514
33.80488,208096
33.81115,216916
33.81740,209132
33.82365,209143
33.82990,213610
33.83617,209799
33.84242,205382
33.84867,208285
33.85493,205177
33.86118,208131
33.86743,208634
33.87370,212787
33.87995,219024
33.88620,208577
33.89247,211328
33.89872,209767
33.90497,204855
33.91123,214256
33.91748,205813
33.92373,207153
33.93000,207874
33.93625,213108
33.94250,206094
33.94877,212823
33.95502,209364
33.96127,208321
33.96753,212027
33.97378,206546
33.98003,204418
33.98630,206451
33.99255,203009
33.99880,205463
34.00507,211831
34.01132,209069
34.01757,211868
34.02383,208445
34.03008,209187
34.03633,204608
34.04258,210593
34.04885,205226
34.05510,204379
34.06135,207049
34.06762,206815
34.07387,205719
34.08012,203375
34.08638,214176
34.09263,207460
34.09888,199455
34.10515,215985
34.11140,204682
34.11765,205312
34.12392,200557
34.13017,202379
34.13642,210850
34.14268,211124
34.14893,210351
34.15518,204839
34.16145,202898
34.16770,206028
34.17395,208981
34.18022,209290
34.18647,201599
34.19272,202249
34.19898,204640
34.20523,207861
34.21148,206141
34.21775,207273
34.22400,201580
34.23025,202487
34.23652,210051
34.24277,207621
34.24902,201645
34.25528,207006
34.26153,200772
34.26778,209517
34.27403,209874
34.28030,200864
34.28655,204976
34.29280,207051
34.29907,207234
34.30532,206349
34.31157,207663
34.31783,205171
34.32408,203576
34.33033,200813
34.33660,207608
34.34285,210471
34.34910,201951
34.35537,200986
34.36162,200887
34.36787,201241
34.37413,207934
34.38038,206423
34.38663,198128
34.39290,207949
34.39915,203218
34.40540,200445
34.41167,199280
34.41792,200516
34.42417,202270
34.43043,200983
34.43668,201898
34.44293,203170
34.44920,201485
34.45545,202165
34.46170,198395
34.46797,206918
34.47422,206462
34.48047,198581
34.48672,197019
34.49298,206906
34.49923,198884
34.50548,202419
34.51175,202364
34.51800,201205
34.52425,206584
34.53052,202354
34.53677,201432
34.54302,204899
34.54928,197705
34.55553,208773
34.56178,205779
34.56805,200456
34.57430,196527
34.58055,204104
34.58682,202257
34.59307,204281
34.59932,204766
34.60558,206366
34.61183,205833
34.61808,206172
34.62435,201339
34.63060,208441
34.63685,197884
34.64312,201152
34.64937,200613
34.65562,198128
34.66188,197721
34.66813,206904
34.67438,206259
34.68065,204843
34.68690,207440
34.69315,198513
34.69942,200857
34.70567,195683
34.71192,200794
34.71817,201356
34.72443,196829
34.73068,195814
34.73693,201968
34.74320,196116
34.74945,205090
34.75570,196323
34.76197,202487
34.76822,194171
34.77447,196449
34.78073,198646
34.78698,199471
34.79323,205253
34.79950,201858
34.80575,198222
34.81200,203943
34.81827,193970
34.82452,202085
34.83077,196402
34.83703,195737
34.84328,197599
34.84953,206722
34.85580,190909
34.86205,196465
34.86830,193053
34.87457,194103
34.88082,200678
34.88707,199788
34.89333,200049
34.89958,192274
34.90583,198639
34.91210,199360
34.91835,192673
34.92460,195390
34.93085,192360
34.93712,192510
34.94337,197920
34.94962,193081
34.95588,196059
34.96213,194014
34.96838,195643
34.97465,201616
34.98090,198856
34.98715,191668
34.99342,190774
34.99967,198281
35.00592,198125
35.01218,200547
35.01843,201865
35.02468,197348
35.03095,193914
35.03720,195901
35.04345,195938
35.04972,197833
35.05597,195477
35.06222,194671
35.06848,195126
35.07473,196699
35.08098,192668
35.08725,194276
35.09350,199602
35.09975,191179
35.10602,190220
35.11227,198732
35.11852,194457
35.12478,202580
35.13103,189783
35.13728,198282
35.14355,189628
35.14980,198948
35.15605,196669
35.16230,200895
35.16857,201275
35.17482,197388
35.18107,196691
35.18733,191142
35.19358,199136
35.19983,194213
35.20610,196482
35.21235,192441
35.21860,195299
35.22487,198371
35.23112,192351
35.23737,198119
35.24363,193002
35.24988,190381
35.25613,192840
35.26240,192372
35.26865,199881
35.27490,195600
35.28117,199090
35.28742,193542
35.29367,190640
35.29993,195388
35.30618,189558
35.31243,191810
35.31870,191634
35.32495,195610
35.33120,198879
35.33747,193405
35.34372,193607
35.34997,191315
35.35623,195455
35.36248,195683
35.36873,196303
35.37498,192673
35.38125,192041
35.38750,188255
35.39375,188570
35.40002,190838
35.40627,195471
35.41252,188763
35.41878,190004
35.42503,187633
35.43128,192532
35.43755,190196
35.44380,188642
35.45005,190581
35.45632,189242
35.46257,195336
35.46882,193874
35.47508,195682
35.48133,197241
35.48758,193227
35.49385,188954
35.50010,192696
35.50635,196631
35.51262,192970
35.51887,193432
35.52512,187895
35.53138,188647
35.53763,199107
35.54388,193867
35.55015,195765
35.55640,195827
35.56265,189509
35.56892,188913
35.57517,192082
35.58142,200296
35.58768,194172
35.59393,194074
35.60018,192815
35.60643,198134
35.61270,195714
35.61895,190846
35.62520,191304
35.63147,191335
35.63772,192910
35.64397,193022
35.65023,190885
35.65648,194932
35.66273,187497
35.66900,184199
35.67525,186470
35.68150,189539
35.68777,192001
35.69402,191386
35.70027,182992
35.70653,186733
35.71278,187553
35.71903,192007
35.72530,190394
35.73155,191083
35.73780,184489
35.74407,185970
35.75032,186855
35.75657,185467
35.76283,189075
35.76908,189181
35.77533,189553
35.78160,190673
35.78785,185665
35.79410,186178
35.80037,190542
35.80662,185028
35.81287,187581
35.81912,192767
35.82538,189586
35.83163,190182
35.83788,187373
35.84415,186227
35.85040,190862
35.85665,186607
35.86292,191398
35.86917,192361
35.87542,188516
35.88168,189974
35.88793,187783
35.89418,192132
35.90045,184258
35.90670,183830
35.91295,183407
35.91922,185801
35.92547,188167
35.93172,187412
35.93798,192042
35.94423,182267
35.95048,186231
35.95675,189355
35.96300,188491
35.96925,183970
35.97552,184936
35.98177,182016
35.98802,190729
35.99428,191304
36.00053,183377
36.00678,187048
36.01305,182264
36.01930,180288
36.02555,184192
36.03180,186183
36.03807,181539
36.04432,189062
36.05057,189578
36.05683,187330
36.06308,181844
36.06933,191785
36.07560,187104
36.08185,184228
36.08810,188157
36.09437,184838
36.10062,183245
36.10687,182683
36.11313,188504
36.11938,181878
36.12563,182638
36.13190,183064
36.13815,181644
36.14440,181666
36.15067,181136
36.15692,181584
36.16317,179777
36.16943,189567
36.17568,176508
36.18193,189466
36.18820,187972
36.19445,192312
36.20070,185922
36.20697,194664
36.21322,189383
36.21947,195650
36.22573,203479
36.23198,202649
36.23823,214796
36.24450,227864
36.25075,235931
36.25700,239356
36.26325,262294
36.26952,266428
36.27577,281866
36.28202,292600
36.28828,305158
36.29453,316310
36.30078,330422
36.30705,335200
36.31330,331578
36.31955,327803
36.32582,322304
36.33207,315245
36.33832,299224
36.34458,280483
36.35083,275053
36.35708,258741
36.36335,250164
36.36960,236826
36.37585,231133
36.38212,225675
36.38837,215389
36.39462,206285
36.40088,211567
36.40713,202322
36.41338,200922
36.41965,201861
36.42590,202572
36.43215,204269
36.43842,197327
36.44467,198115
36.45092,190435
36.45718,190736
36.46343,188986
36.46968,192573
36.47593,187032
36.48220,190771
36.48845,195386
36.49470,191363
36.50097,190866
36.50722,186631
36.51347,193118
36.51973,192105
36.52598,193275
36.53223,186208
36.53850,183818
36.54475,183846
36.55100,188673
36.55727,184976
36.56352,190881
36.56977,182362
36.57603,188328
36.58228,185322
36.58853,180373
36.59480,184048
36.60105,185647
36.60730,185682
36.61357,189721
36.61982,184117
36.62607,182647
36.63233,181706
36.63858,190262
36.64483,184332
36.65110,181016
36.65735,183665
36.66360,187968
36.66987,183741
36.67612,192450
36.68237,182919
36.68862,186517
36.69488,184943
36.70113,180803
36.70738,184672
36.71365,186258
36.71990,182463
36.72615,179611
36.73242,185922
36.73867,182116
36.74492,181813
36.75118,186280
36.75743,188953
36.76368,179221
36.76995,185702
36.77620,178088
36.78245,183576
36.78872,181634
36.79497,184484
36.80122,185495
36.80748,181292
36.81373,179449
36.81998,181239
36.82625,183006
36.83250,185182
36.83875,177144
36.84502,185846
36.85127,177044
36.85752,185747
36.86378,177673
36.87003,179282
36.87628,183377
36.88255,182123
36.88880,178432
36.89505,180960
36.90132,179020
36.90757,180619
36.91382,179006
36.92007,178565
36.92633,183243
36.93258,182197
36.93883,186793
36.94510,181079
36.95135,184620
36.95760,184963
36.96387,179111
36.97012,182983
36.97637,177826
36.98263,177684
36.98888,176594
36.99513,178367
37.00140,176429
37.00765,172529
37.01390,182159
37.02017,182650
37.02642,182057
37.03267,184323
37.03893,175028
37.04518,176379
37.05143,178969
37.05770,177091
37.06395,185568
37.07020,183535
37.07647,176112
37.08272,180792
37.08897,173890
37.09523,173800
37.10148,175792
37.10773,175144
37.11400,175354
37.12025,179791
37.12650,181127
37.13275,181929
37.13902,182251
37.14527,176420
37.15152,177372
37.15778,179769
37.16403,176828
37.17028,175759
37.17655,176198
37.18280,180645
37.18905,177431
37.19532,174944
37.20157,179254
37.20782,178894
37.21408,179252
37.22033,172976
37.22658,176254
37.23285,173729
37.23910,183750
37.24535,172563
37.25162,178658
37.25787,176352
37.26412,178582
37.27038,182744
37.27663,174013
37.28288,173268
37.28915,169736
37.29540,178500
37.30165,175341
37.30792,183025
37.31417,178162
37.32042,177381
37.32668,178323
37.33293,173244
37.33918,178083
37.34545,169839
37.35170,176152
37.35795,174372
37.36420,174939
37.37047,173754
37.37672,177315
37.38297,175537
37.38923,173518
37.39548,174498
37.40173,180235
37.40800,174857
37.41425,177123
37.42050,174477
37.42677,174422
37.43302,170654
37.43927,174588
37.44553,177186
37.45178,170169
37.45803,178576
37.46430,175547
37.47055,169677
37.47680,171301
37.48307,175941
37.48932,170246
