D:\MassHunter\GCMS\1\data\metastasis_lineages_3replicates_3runs_10302020\P_plate1_run3_10302020.D Sat Oct 31 09:23:28 2020
Start of data points
5.99355	219106
5.99980	217818
6.00605	238197
6.01232	225666
6.01857	222228
6.02482	227246
6.03108	244966
6.03733	252519
6.04358	257223
6.04985	247819
6.05610	252621
6.06235	300794
6.06862	319251
6.07487	299329
6.08112	258125
6.08738	261506
6.09363	435404
6.09988	889422
6.10615	1304564
6.11240	1213686
6.11865	757466
6.12492	445512
6.13117	320015
6.13742	272433
6.14367	293579
6.14993	416395
6.15618	725414
6.16243	1118742
6.16870	1306232
6.17495	1039140
6.18120	640109
6.18747	384420
6.19372	278740
6.19997	246169
6.20623	218253
6.21248	215098
6.21873	216713
6.22500	209468
6.23125	197894
6.23750	187223
6.24377	182940
6.25002	163303
6.25627	165871
6.26253	168208
6.26878	179533
6.27503	178078
6.28130	174000
6.28755	174656
6.29380	211494
6.30007	311736
6.30632	547717
6.31257	998695
6.31883	1855377
6.32508	4121819
6.33133	9086916
6.33760	1.508105E+07
6.34385	1.802348E+07
6.35010	1.30292E+07
6.35637	4646688
6.36262	966174
6.36887	320858
6.37512	246552
6.38138	233445
6.38763	222879
6.39388	243634
6.40015	323490
6.40640	530230
6.41265	760582
6.41892	854777
6.42517	893675
6.43142	1010370
6.43768	963102
6.44393	883883
6.45018	1608209
6.45645	4203302
6.46270	9754328
6.46895	1.801401E+07
6.47522	2.647732E+07
6.48147	3.349212E+07
6.48772	3.897242E+07
6.49398	4.314904E+07
6.50023	4.579354E+07
6.50648	4.666073E+07
6.51275	4.651927E+07
6.51900	4.562276E+07
6.52525	4.424485E+07
6.53152	4.295419E+07
6.53777	4.471244E+07
6.54402	1.076739E+07
6.55028	1275207
6.55653	1131866
6.56278	1180153
6.56905	1425663
6.57530	1972089
6.58155	2518420
6.58780	2350652
6.59407	1426645
6.60032	660151
6.60657	387217
6.61283	330305
6.61908	312372
6.62533	300873
6.63160	309869
6.63785	326645
6.64410	315768
6.65037	305106
6.65662	288226
6.66287	324496
6.66913	411666
6.67538	497601
6.68163	453767
6.68790	365680
6.69415	309933
6.70040	284574
6.70667	290425
6.71292	313232
6.71917	333125
6.72543	342646
6.73168	353522
6.73793	359379
6.74420	376697
6.75045	378323
6.75670	375098
6.76297	376540
6.76922	382297
6.77547	384500
6.78173	386699
6.78798	392247
6.79423	420314
6.80050	443957
6.80675	475099
6.81300	504101
6.81925	499627
6.82552	496316
6.83177	487182
6.83802	518056
6.84428	560223
6.85053	618423
6.85678	589767
6.86305	532728
6.86930	510241
6.87555	573367
6.88182	711465
6.88807	844301
6.89432	822176
6.90058	678712
6.90683	563587
6.91308	497976
6.91935	470969
6.92560	459174
6.93185	444515
6.93812	445271
6.94437	441269
6.95062	424212
6.95688	412838
6.96313	394286
6.96938	379394
6.97565	379346
6.98190	380313
6.98815	365900
6.99442	350287
7.00067	333921
7.00692	320756
7.01318	336004
7.01943	423701
7.02568	750277
7.03193	1781979
7.03820	4274928
7.04445	8234943
7.05070	1.120234E+07
7.05697	9951848
7.06322	5482703
7.06947	1891050
7.07573	554529
7.08198	266613
7.08823	216930
7.09450	204623
7.10075	186003
7.10700	182829
7.11327	171746
7.11952	166303
7.12577	158271
7.13203	180065
7.13828	252779
7.14453	376082
7.15080	517717
7.15705	520092
7.16330	356853
7.16957	218486
7.17582	157801
7.18207	140865
7.18833	140419
7.19458	187569
7.20083	295890
7.20710	380076
7.21335	350672
7.21960	245075
7.22587	169161
7.23212	155145
7.23837	173427
7.24462	208606
7.25088	325255
7.25713	583375
7.26338	894562
7.26965	986821
7.27590	742215
7.28215	444175
7.28842	250934
7.29467	183533
7.30092	165866
7.30718	163672
7.31343	150123
7.31968	144010
7.32595	128965
7.33220	131601
7.33845	123488
7.34472	122785
7.35097	118152
7.35722	115446
7.36348	114485
7.36973	110125
7.37598	117309
7.38225	132791
7.38850	147658
7.39475	164778
7.40102	155797
7.40727	157474
7.41352	203609
7.41978	298343
7.42603	409210
7.43228	437408
7.43855	399565
7.44480	309167
7.45105	227215
7.45732	182396
7.46357	166219
7.46982	175579
7.47607	179437
7.48233	183424
7.48858	202773
7.49483	237417
7.50110	308159
7.50735	363319
7.51360	330741
7.51987	235587
7.52612	160823
7.53237	128309
7.53863	127383
7.54488	160744
7.55113	445696
7.55740	1801802
7.56365	5986265
7.56990	1.369884E+07
7.57617	2.213958E+07
7.58242	2.745911E+07
7.58867	2.551629E+07
7.59493	1.477455E+07
7.60118	5910140
7.60743	3478995
7.61370	2698235
7.61995	1770153
7.62620	1103181
7.63247	712042
7.63872	453258
7.64497	299976
7.65123	237048
7.65748	213965
7.66373	204609
7.67000	253924
7.67625	367528
7.68250	523498
7.68875	569326
7.69502	466357
7.70127	305286
7.70752	243452
7.71378	282363
7.72003	383656
7.72628	430044
7.73255	390657
7.73880	336114
7.74505	267367
7.75132	219273
7.75757	191294
7.76382	173414
7.77008	166718
7.77633	172634
7.78258	188561
7.78885	182055
7.79510	173289
7.80135	171501
7.80762	164922
7.81387	167586
7.82012	213240
7.82638	308488
7.83263	403329
7.83888	408056
7.84515	324359
7.85140	243280
7.85765	238391
7.86392	257145
7.87017	284090
7.87642	263033
7.88268	224385
7.88893	195357
7.89518	179437
7.90143	185818
7.90770	199048
7.91395	212840
7.92020	219556
7.92647	214286
7.93272	207315
7.93897	202958
7.94523	242842
7.95148	326774
7.95773	414867
7.96400	416897
7.97025	361348
7.97650	317292
7.98277	343021
7.98902	451483
7.99527	733564
8.00153	1093674
8.00778	1487280
8.01403	2123216
8.02030	2711906
8.02655	2683688
8.03280	1910467
8.03907	1166996
8.04532	903828
8.05157	1009021
8.05783	1131289
8.06408	1005215
8.07033	674686
8.07660	417038
8.08285	362405
8.08910	493572
8.09537	678599
8.10162	821876
8.10787	935058
8.11413	1161716
8.12038	1395228
8.12663	1280292
8.13288	815000
8.13915	414121
8.14540	251691
8.15165	197661
8.15792	175906
8.16417	162264
8.17042	159319
8.17668	157975
8.18293	151117
8.18918	146346
8.19545	145921
8.20170	136757
8.20795	135889
8.21422	139842
8.22047	160301
8.22672	215082
8.23298	313017
8.23923	414365
8.24548	411326
8.25175	323037
8.25800	262086
8.26425	234677
8.27052	216251
8.27677	207902
8.28302	231093
8.28928	249383
8.29553	249272
8.30178	218085
8.30805	168910
8.31430	138592
8.32055	117902
8.32682	119260
8.33307	120596
8.33932	130376
8.34557	129153
8.35183	132943
8.35808	129926
8.36433	139942
8.37060	140754
8.37685	138706
8.38310	130806
8.38937	139650
8.39562	180451
8.40187	313970
8.40813	565135
8.41438	718939
8.42063	613658
8.42690	375394
8.43315	235312
8.43940	239409
8.44567	315061
8.45192	386774
8.45817	417714
8.46443	364080
8.47068	273988
8.47693	195115
8.48320	168769
8.48945	156233
8.49570	159446
8.50197	175337
8.50822	187335
8.51447	184609
8.52073	171439
8.52698	144036
8.53323	126789
8.53950	120482
8.54575	114110
8.55200	126022
8.55825	166896
8.56452	276151
8.57077	470205
8.57702	753021
8.58328	1220651
8.58953	1825801
8.59578	2157559
8.60205	1948508
8.60830	2059007
8.61455	4252099
8.62082	9648564
8.62707	1.659791E+07
8.63332	1.930258E+07
8.63958	1.513836E+07
8.64583	6889355
8.65208	1895471
8.65835	481619
8.66460	258594
8.67085	238450
8.67712	219009
8.68337	213706
8.68962	225767
8.69588	249908
8.70213	250645
8.70838	249302
8.71465	252367
8.72090	237359
8.72715	218181
8.73342	203363
8.73967	204271
8.74592	217099
8.75218	228805
8.75843	197813
8.76468	156561
8.77095	133353
8.77720	124433
8.78345	128146
8.78970	127485
8.79597	122854
8.80222	118737
8.80847	125598
8.81473	122081
8.82098	129190
8.82723	164323
8.83350	346849
8.83975	942991
8.84600	2286356
8.85227	4381420
8.85852	6363065
8.86477	6583976
8.87103	5410268
8.87728	4210274
8.88353	4081199
8.88980	4993377
8.89605	5962398
8.90230	6809431
8.90857	5933796
8.91482	3086662
8.92107	1251602
8.92733	574064
8.93358	322881
8.93983	224459
8.94610	192626
8.95235	196849
8.95860	235594
8.96487	279518
8.97112	342320
8.97737	401488
8.98363	433899
8.98988	468305
8.99613	559247
9.00238	776913
9.00865	965106
9.01490	990872
9.02115	795122
9.02742	635868
9.03367	906840
9.03992	1944963
9.04618	3229531
9.05243	3587773
9.05868	2526094
9.06495	1209309
9.07120	501434
9.07745	278298
9.08372	232002
9.08997	226051
9.09622	236104
9.10248	233337
9.10873	222616
9.11498	195542
9.12125	171605
9.12750	157384
9.13375	169029
9.14002	197096
9.14627	212877
9.15252	231023
9.15878	270744
9.16503	322000
9.17128	355510
9.17755	361096
9.18380	390712
9.19005	478005
9.19632	522445
9.20257	481254
9.20882	364075
9.21508	277514
9.22133	215678
9.22758	179744
9.23383	181669
9.24010	224449
9.24635	282492
9.25260	309192
9.25887	274151
9.26512	204246
9.27137	155205
9.27763	127945
9.28388	129669
9.29013	151772
9.29640	208642
9.30265	293965
9.30890	389855
9.31517	481464
9.32142	567384
9.32767	596801
9.33393	571656
9.34018	653520
9.34643	957750
9.35270	1287786
9.35895	1302073
9.36520	967095
9.37147	600515
9.37772	856908
9.38397	2871836
9.39023	7573814
9.39648	1.420328E+07
9.40273	1.822898E+07
9.40900	1.663965E+07
9.41525	9236717
9.42150	3019680
9.42777	1040318
9.43402	1655607
9.44027	5305507
9.44652	1.394382E+07
9.45278	2.624111E+07
9.45903	3.584106E+07
9.46528	3.784391E+07
9.47155	3.108141E+07
9.47780	1.679317E+07
9.48405	4994028
9.49032	1232827
9.49657	478904
9.50282	303963
9.50908	257750
9.51533	244273
9.52158	243053
9.52785	235973
9.53410	223900
9.54035	222016
9.54662	222615
9.55287	223117
9.55912	214470
9.56538	213129
9.57163	227665
9.57788	238762
9.58415	249384
9.59040	237128
9.59665	221202
9.60292	212217
9.60917	241098
9.61542	281111
9.62168	287087
9.62793	260143
9.63418	203436
9.64045	174320
9.64670	160248
9.65295	174278
9.65922	170177
9.66547	163827
9.67172	172246
9.67797	361532
9.68423	1378221
9.69048	4718456
9.69673	1.073081E+07
9.70300	1.625472E+07
9.70925	1.716927E+07
9.71550	1.209681E+07
9.72177	5353132
9.72802	3252227
9.73427	4856468
9.74053	7086399
9.74678	7445260
9.75303	5044124
9.75930	2292662
9.76555	787611
9.77180	347491
9.77807	241596
9.78432	202917
9.79057	177708
9.79683	159253
9.80308	150808
9.80933	149813
9.81560	149863
9.82185	151004
9.82810	153214
9.83437	163303
9.84062	196700
9.84687	256847
9.85313	508482
9.85938	1641285
9.86563	5186616
9.87190	1.208125E+07
9.87815	1.90772E+07
9.88440	2.162844E+07
9.89065	1.663936E+07
9.89692	7797748
9.90317	2866769
9.90942	2123465
9.91568	2306570
9.92193	1805494
9.92818	981870
9.93445	435644
9.94070	246619
9.94695	211255
9.95322	235176
9.95947	338474
9.96572	568413
9.97198	926074
9.97823	1246363
9.98448	1466829
9.99075	1625595
9.99700	1644180
10.00325	1358146
10.00952	863868
10.01577	510557
10.02202	348535
10.02828	281552
10.03453	236933
10.04078	217541
10.04705	215375
10.05330	217437
10.05955	209198
10.06582	182644
10.07207	158503
10.07832	149423
10.08458	158966
10.09083	178772
10.09708	206358
10.10335	224290
10.10960	248275
10.11585	274866
10.12210	274879
10.12837	251523
10.13462	200145
10.14087	162585
10.14713	152893
10.15338	147032
10.15963	147002
10.16590	143344
10.17215	155827
10.17840	179515
10.18467	208796
10.19092	219223
10.19717	210269
10.20343	188481
10.20968	180082
10.21593	235030
10.22220	412041
10.22845	712590
10.23470	1005821
10.24097	1141477
10.24722	1058205
10.25347	813087
10.25973	540663
10.26598	365993
10.27223	292706
10.27850	248699
10.28475	259865
10.29100	353004
10.29727	458547
10.30352	446998
10.30977	344688
10.31603	256206
10.32228	237140
10.32853	305693
10.33478	469503
10.34105	633222
10.34730	617140
10.35355	429230
10.35982	275950
10.36607	214803
10.37232	196767
10.37858	178424
10.38483	157953
10.39108	143336
10.39735	133843
10.40360	124086
10.40985	115051
10.41612	118949
10.42237	127101
10.42862	148380
10.43488	157683
10.44113	163626
10.44738	167321
10.45365	168340
10.45990	175844
10.46615	172436
10.47242	185749
10.47867	237252
10.48492	345565
10.49118	446408
10.49743	425720
10.50368	331707
10.50995	226344
10.51620	166815
10.52245	147854
10.52872	183200
10.53497	252504
10.54122	339476
10.54747	368690
10.55373	308117
10.55998	246031
10.56623	207971
10.57250	211076
10.57875	233742
10.58500	257797
10.59127	257346
10.59752	280543
10.60377	562121
10.61003	1848760
10.61628	5358299
10.62253	1.09333E+07
10.62880	1.592953E+07
10.63505	1.571226E+07
10.64130	1.002688E+07
10.64757	3783258
10.65382	1074288
10.66007	343773
10.66633	218781
10.67258	221426
10.67883	234433
10.68510	234258
10.69135	209105
10.69760	180591
10.70387	157047
10.71012	151749
10.71637	158127
10.72263	178704
10.72888	189084
10.73513	196273
10.74140	201128
10.74765	201358
10.75390	193769
10.76017	187584
10.76642	181826
10.77267	188431
10.77892	192354
10.78518	192566
10.79143	183093
10.79768	184339
10.80395	208450
10.81020	290893
10.81645	451529
10.82272	568282
10.82897	553595
10.83522	402098
10.84148	261837
10.84773	198526
10.85398	178447
10.86025	187286
10.86650	195624
10.87275	198991
10.87902	202318
10.88527	195439
10.89152	188474
10.89778	198454
10.90403	211777
10.91028	216404
10.91655	205274
10.92280	189997
10.92905	192677
10.93532	198202
10.94157	186628
10.94782	173385
10.95408	174887
10.96033	241811
10.96658	583018
10.97285	1911029
10.97910	5618682
10.98535	1.260746E+07
10.99160	2.0484E+07
10.99787	2.64648E+07
11.00412	2.376692E+07
11.01037	1.289823E+07
11.01663	4193014
11.02288	975194
11.02913	325524
11.03540	271943
11.04165	296389
11.04790	320870
11.05417	349702
11.06042	400879
11.06667	417595
11.07293	362879
11.07918	270816
11.08543	201264
11.09170	185421
11.09795	198791
11.10420	219598
11.11047	223188
11.11672	220214
11.12297	216506
11.12923	231355
11.13548	255370
11.14173	261667
11.14800	263340
11.15425	301539
11.16050	451224
11.16677	663330
11.17302	811705
11.17927	731677
11.18553	510220
11.19178	320318
11.19803	224340
11.20428	209963
11.21055	241823
11.21680	266453
11.22305	276663
11.22932	267631
11.23557	250110
11.24182	235628
11.24808	242469
11.25433	280935
11.26058	306516
11.26685	324414
11.27310	385404
11.27935	491072
11.28562	536408
11.29187	485070
11.29812	369654
11.30438	270170
11.31063	231035
11.31688	275779
11.32315	448437
11.32940	698276
11.33565	843118
11.34192	738743
11.34817	480133
11.35442	266520
11.36068	185385
11.36693	174629
11.37318	176375
11.37945	175480
11.38570	168651
11.39195	159340
11.39822	165263
11.40447	174724
11.41072	172458
11.41698	172505
11.42323	167970
11.42948	175828
11.43573	233646
11.44200	396290
11.44825	707919
11.45450	1025981
11.46077	1053541
11.46702	762706
11.47327	471870
11.47953	334880
11.48578	311149
11.49203	287022
11.49830	247894
11.50455	212391
11.51080	189722
11.51707	176793
11.52332	170185
11.52957	169679
11.53583	172856
11.54208	172922
11.54833	176293
11.55460	172133
11.56085	166731
11.56710	152662
11.57337	148219
11.57962	152654
11.58587	151669
11.59213	158480
11.59838	170831
11.60463	163895
11.61090	164303
11.61715	162022
11.62340	165627
11.62967	162649
11.63592	165253
11.64217	173435
11.64842	191966
11.65468	212873
11.66093	230785
11.66718	228801
11.67345	206546
11.67970	181249
11.68595	171748
11.69222	170181
11.69847	197348
11.70472	270191
11.71098	407817
11.71723	595974
11.72348	732218
11.72975	654852
11.73600	460202
11.74225	325086
11.74852	238306
11.75477	199977
11.76102	193689
11.76728	215398
11.77353	244222
11.77978	265440
11.78605	265193
11.79230	273984
11.79855	278912
11.80482	278740
11.81107	271082
11.81732	262116
11.82358	272665
11.82983	387311
11.83608	638254
11.84235	927631
11.84860	967164
11.85485	785127
11.86112	505302
11.86737	326467
11.87362	256838
11.87987	262103
11.88613	319500
11.89238	419339
11.89863	496934
11.90490	493151
11.91115	420340
11.91740	335200
11.92367	274009
11.92992	255018
11.93617	301042
11.94243	494568
11.94868	1054610
11.95493	2420862
11.96120	4563720
11.96745	7044200
11.97370	7818416
11.97997	5458115
11.98622	2616989
11.99247	1097829
11.99873	737089
12.00498	802759
12.01123	862048
12.01750	731692
12.02375	574121
12.03000	513773
12.03627	593603
12.04252	880289
12.04877	1356330
12.05503	1814511
12.06128	2017619
12.06753	1715456
12.07380	1179749
12.08005	738020
12.08630	557186
12.09255	529938
12.09882	526688
12.10507	492461
12.11132	421698
12.11758	340405
12.12383	288520
12.13008	267472
12.13635	261045
12.14260	259438
12.14885	244344
12.15512	232583
12.16137	221901
12.16762	222211
12.17388	226126
12.18013	228284
12.18638	260133
12.19265	324693
12.19890	403613
12.20515	533591
12.21142	697440
12.21767	840400
12.22392	903563
12.23018	819331
12.23643	680802
12.24268	592933
12.24895	695136
12.25520	1091912
12.26145	1821094
12.26772	2883646
12.27397	3896448
12.28022	4206062
12.28648	3441756
12.29273	2030371
12.29898	904712
12.30525	429302
12.31150	273525
12.31775	228034
12.32400	209208
12.33027	207599
12.33652	222328
12.34277	256718
12.34903	305781
12.35528	351848
12.36153	376509
12.36780	370610
12.37405	351103
12.38030	363735
12.38657	432794
12.39282	499869
12.39907	489934
12.40533	403019
12.41158	318267
12.41783	275929
12.42410	270553
12.43035	305446
12.43660	358101
12.44287	395879
12.44912	376645
12.45537	341664
12.46163	316601
12.46788	319251
12.47413	394649
12.48040	611808
12.48665	975050
12.49290	1408593
12.49917	1632535
12.50542	1439172
12.51167	963631
12.51793	535234
12.52418	330145
12.53043	274708
12.53668	315503
12.54295	399268
12.54920	465186
12.55545	463823
12.56172	394476
12.56797	380421
12.57422	569080
12.58048	1031852
12.58673	1846394
12.59298	2839052
12.59925	3456969
12.60550	3536711
12.61175	3882756
12.61802	5471344
12.62427	7659100
12.63052	9335561
12.63678	9687906
12.64303	1.083175E+07
12.64928	1.362144E+07
12.65555	1.896289E+07
12.66180	2.562903E+07
12.66805	3.26239E+07
12.67432	3.686351E+07
12.68057	3.685238E+07
12.68682	3.203764E+07
12.69308	1.915381E+07
12.69933	5658644
12.70558	1315719
12.71185	796472
12.71810	1025577
12.72435	1302048
12.73062	1358094
12.73687	1337733
12.74312	1365203
12.74938	1354247
12.75563	1203443
12.76188	917683
12.76813	728478
12.77440	613617
12.78065	627949
12.78690	805108
12.79317	955700
12.79942	927243
12.80567	754398
12.81193	541876
12.81818	448241
12.82443	473180
12.83070	559912
12.83695	595900
12.84320	554977
12.84947	460956
12.85572	420753
12.86197	404730
12.86823	398784
12.87448	392506
12.88073	425661
12.88700	604610
12.89325	969660
12.89950	1325697
12.90577	1479551
12.91202	1335031
12.91827	1073840
12.92453	798789
12.93078	582507
12.93703	418802
12.94330	337463
12.94955	303794
12.95580	297560
12.96207	291558
12.96832	275933
12.97457	264074
12.98082	271149
12.98708	276683
12.99333	297334
12.99958	330870
13.00585	358548
13.01210	390730
13.01835	437527
13.02462	556005
13.03087	770540
13.03712	1011438
13.04338	1100130
13.04963	897754
13.05588	623564
13.06215	489238
13.06840	658603
13.07465	1245444
13.08092	2539575
13.08717	4051713
13.09342	4812363
13.09968	3735627
13.10593	2155080
13.11218	1113545
13.11845	672279
13.12470	490144
13.13095	409820
13.13722	389724
13.14347	391253
13.14972	390270
13.15598	364331
13.16223	347403
13.16848	331530
13.17475	312170
13.18100	285505
13.18725	260806
13.19350	252855
13.19977	243815
13.20602	241080
13.21227	244639
13.21853	257147
13.22478	279029
13.23103	309830
13.23730	344382
13.24355	379898
13.24980	373556
13.25607	386071
13.26232	411667
13.26857	445089
13.27483	445900
13.28108	423545
13.28733	443707
13.29360	594720
13.29985	948884
13.30610	1525316
13.31237	2035958
13.31862	2083971
13.32487	1483580
13.33113	828341
13.33738	465676
13.34363	353089
13.34990	353669
13.35615	365132
13.36240	355376
13.36867	333605
13.37492	306977
13.38117	297199
13.38743	279514
13.39368	268383
13.39993	257913
13.40620	257927
13.41245	268175
13.41870	283633
13.42495	311210
13.43122	364279
13.43747	409459
13.44372	449779
13.44998	439324
13.45623	391174
13.46248	341540
13.46875	302484
13.47500	291746
13.48125	295558
13.48752	298845
13.49377	298782
13.50002	302101
13.50628	305719
13.51253	314397
13.51878	343630
13.52505	364987
13.53130	390864
13.53755	431322
13.54382	554565
13.55007	823312
13.55632	1162362
13.56258	1334712
13.56883	1152337
13.57508	828464
13.58135	617425
13.58760	651171
13.59385	931518
13.60012	1453154
13.60637	1954124
13.61262	2049918
13.61888	1619314
13.62513	1041568
13.63138	700647
13.63763	539995
13.64390	474000
13.65015	450112
13.65640	463602
13.66267	470780
13.66892	449043
13.67517	426353
13.68143	453424
13.68768	529287
13.69393	637767
13.70020	690335
13.70645	619853
13.71270	511179
13.71897	422963
13.72522	387217
13.73147	374903
13.73773	377954
13.74398	400242
13.75023	487028
13.75650	755651
13.76275	1318538
13.76900	1907117
13.77527	2013119
13.78152	1585909
13.78777	955760
13.79403	650407
13.80028	793544
13.80653	1552969
13.81280	3263880
13.81905	6265540
13.82530	1.111553E+07
13.83157	1.822267E+07
13.83782	2.47551E+07
13.84407	2.920039E+07
13.85032	2.59629E+07
13.85658	1.410225E+07
13.86283	3947002
13.86908	885156
13.87535	397435
13.88160	415192
13.88785	691404
13.89412	1405451
13.90037	2828604
13.90662	5400249
13.91288	9161107
13.91913	1.202284E+07
13.92538	1.193516E+07
13.93165	7456038
13.93790	3147967
13.94415	939864
13.95042	352815
13.95667	256970
13.96292	247814
13.96918	249605
13.97543	249893
13.98168	266615
13.98795	274032
13.99420	299065
14.00045	324446
14.00672	367016
14.01297	422211
14.01922	424319
14.02548	363648
14.03173	289834
14.03798	225454
14.04425	203134
14.05050	204292
14.05675	229174
14.06302	254754
14.06927	283620
14.07552	314903
14.08177	315710
14.08803	276567
14.09428	239079
14.10053	213341
14.10680	201487
14.11305	192788
14.11930	200807
14.12557	209900
14.13182	215587
14.13807	201903
14.14433	196793
14.15058	199030
14.15683	207305
14.16310	210274
14.16935	207982
14.17560	199056
14.18187	185888
14.18812	186272
14.19437	187704
14.20063	200248
14.20688	223037
14.21313	281063
14.21940	399777
14.22565	558418
14.23190	675611
14.23817	700246
14.24442	584971
14.25067	454347
14.25693	393257
14.26318	506138
14.26943	950991
14.27570	1726722
14.28195	2204105
14.28820	1964016
14.29445	1228992
14.30072	633948
14.30697	384989
14.31322	355265
14.31948	474765
14.32573	662323
14.33198	814797
14.33825	766222
14.34450	568601
14.35075	394005
14.35702	301525
14.36327	273097
14.36952	272982
14.37578	283286
14.38203	322561
14.38828	374124
14.39455	476339
14.40080	693790
14.40705	1196074
14.41332	2507135
14.41957	5172601
14.42582	7736915
14.43208	8670134
14.43833	7228238
14.44458	4931830
14.45085	3400304
14.45710	2638839
14.46335	2232390
14.46962	2009302
14.47587	1803250
14.48212	1722956
14.48838	1494741
14.49463	1139666
14.50088	808625
14.50713	559074
14.51340	468585
14.51965	460032
14.52590	457098
14.53217	446967
14.53842	409254
14.54467	356141
14.55093	317744
14.55718	302208
14.56343	299087
14.56970	295455
14.57595	291990
14.58220	284488
14.58847	271889
14.59472	250000
14.60097	248119
14.60723	260016
14.61348	271925
14.61973	281646
14.62600	284049
14.63225	297688
14.63850	379223
14.64477	515495
14.65102	657291
14.65727	703190
14.66353	613153
14.66978	470078
14.67603	400229
14.68230	388093
14.68855	443617
14.69480	575959
14.70107	775070
14.70732	873419
14.71357	849092
14.71983	764418
14.72608	936188
14.73233	1449838
14.73858	2195009
14.74485	2823356
14.75110	3153758
14.75735	3422850
14.76362	3634616
14.76987	3397457
14.77612	2294149
14.78238	1177182
14.78863	576679
14.79488	431573
14.80115	534377
14.80740	787910
14.81365	1055835
14.81992	1069531
14.82617	798982
14.83242	497672
14.83868	325579
14.84493	261759
14.85118	285367
14.85745	370783
14.86370	517808
14.86995	654111
14.87622	640512
14.88247	543765
14.88872	417715
14.89498	332734
14.90123	318068
14.90748	400556
14.91375	621435
14.92000	972086
14.92625	1241061
14.93252	1239319
14.93877	1035644
14.94502	789757
14.95127	679893
14.95753	772335
14.96378	1335461
14.97003	2596272
14.97630	4804253
14.98255	7321552
14.98880	7983170
14.99507	5871209
15.00132	2853608
15.00757	1098307
15.01383	507393
15.02008	357510
15.02633	319829
15.03260	321681
15.03885	341080
15.04510	386209
15.05137	430398
15.05762	442960
15.06387	423493
15.07013	397551
15.07638	375752
15.08263	357252
15.08890	377246
15.09515	419396
15.10140	480082
15.10767	523280
15.11392	565538
15.12017	635308
15.12643	781621
15.13268	932392
15.13893	1091282
15.14520	1273200
15.15145	1404559
15.15770	1710980
15.16397	2657172
15.17022	4526071
15.17647	6571968
15.18272	7118973
15.18898	5196134
15.19523	2623189
15.20148	1186470
15.20775	607197
15.21400	422963
15.22025	321178
15.22652	283396
15.23277	267615
15.23902	267718
15.24528	272850
15.25153	292139
15.25778	308213
15.26405	312613
15.27030	299004
15.27655	275707
15.28282	254567
15.28907	241244
15.29532	249691
15.30158	253006
15.30783	272417
15.31408	307593
15.32035	380527
15.32660	451333
15.33285	484406
15.33912	421406
15.34537	333306
15.35162	289120
15.35788	304909
15.36413	340752
15.37038	362713
15.37665	328788
15.38290	283805
15.38915	238322
15.39540	222297
15.40167	212973
15.40792	209945
15.41417	210686
15.42043	251363
15.42668	330601
15.43293	479594
15.43920	637279
15.44545	889694
15.45170	1141949
15.45797	1324370
15.46422	1254250
15.47047	914168
15.47673	583013
15.48298	370089
15.48923	273341
15.49550	251707
15.50175	280585
15.50800	352645
15.51427	552595
15.52052	1157242
15.52677	2548859
15.53303	5460419
15.53928	8687328
15.54553	1.143761E+07
15.55180	1.47048E+07
15.55805	2.013488E+07
15.56430	2.42646E+07
15.57057	2.564629E+07
15.57682	1.629332E+07
15.58307	5445069
15.58933	1415481
15.59558	689443
15.60183	563583
15.60810	542537
15.61435	540108
15.62060	570777
15.62685	538813
15.63312	509569
15.63937	462050
15.64562	416460
15.65188	361730
15.65813	326620
15.66438	305604
15.67065	302400
15.67690	322307
15.68315	366748
15.68942	374493
15.69567	372398
15.70192	364423
15.70818	360358
15.71443	335373
15.72068	295150
15.72695	271183
15.73320	264964
15.73945	279203
15.74572	301323
15.75197	321236
15.75822	316037
15.76448	293392
15.77073	257174
15.77698	223511
15.78325	210267
15.78950	200775
15.79575	214738
15.80202	225912
15.80827	235405
15.81452	239515
15.82078	256481
15.82703	282242
15.83328	374537
15.83953	559015
15.84580	841590
15.85205	1033466
15.85830	978744
15.86457	679790
15.87082	429333
15.87707	299119
15.88333	261939
15.88958	262342
15.89583	259278
15.90210	247391
15.90835	231179
15.91460	215193
15.92087	214616
15.92712	214792
15.93337	219153
15.93963	219543
15.94588	220254
15.95213	221040
15.95840	255965
15.96465	307182
15.97090	346331
15.97717	339980
15.98342	286671
15.98967	222727
15.99593	195264
16.00218	203734
16.00843	264266
16.01470	420914
16.02095	671498
16.02720	912966
16.03347	1065140
16.03972	1220060
16.04597	1678515
16.05223	2238846
16.05848	2405073
16.06473	2228850
16.07098	1358076
16.07725	939293
16.08350	1047538
16.08975	1483869
16.09602	1696393
16.10227	1620585
16.10852	1443536
16.11478	1802703
16.12103	2957907
16.12728	4402741
16.13355	4872196
16.13980	3784160
16.14605	2131325
16.15232	971970
16.15857	514600
16.16482	396295
16.17108	366725
16.17733	359111
16.18358	351557
16.18985	379380
16.19610	448066
16.20235	496312
16.20862	452309
16.21487	386800
16.22112	414955
16.22738	707076
16.23363	1276237
16.23988	1978684
16.24615	2114524
16.25240	1539598
16.25865	836758
16.26492	474382
16.27117	326731
16.27742	287809
16.28367	271904
16.28993	294919
16.29618	378211
16.30243	618323
16.30870	897418
16.31495	1028772
16.32120	871695
16.32747	593875
16.33372	404361
16.33997	303601
16.34623	275303
16.35248	274740
16.35873	281563
16.36500	278925
16.37125	265037
16.37750	244327
16.38377	231430
16.39002	219352
16.39627	219048
16.40253	221059
16.40878	231194
16.41503	227744
16.42130	236177
16.42755	255400
16.43380	347209
16.44007	531585
16.44632	807814
16.45257	1017684
16.45883	965044
16.46508	843467
16.47133	731863
16.47760	651626
16.48385	518820
16.49010	408704
16.49635	348673
16.50262	327229
16.50887	341759
16.51512	403373
16.52138	469227
16.52763	534410
16.53388	534313
16.54015	502094
16.54640	465809
16.55265	418780
16.55892	384683
16.56517	359735
16.57142	331244
16.57768	317254
16.58393	317981
16.59018	335042
16.59645	335842
16.60270	333853
16.60895	337378
16.61522	342401
16.62147	364858
16.62772	382221
16.63398	415709
16.64023	450704
16.64648	525192
16.65275	567461
16.65900	549656
16.66525	479184
16.67152	411364
16.67777	410762
16.68402	427045
16.69028	441366
16.69653	434552
16.70278	383260
16.70905	341926
16.71530	306975
16.72155	282966
16.72780	290648
16.73407	287740
16.74032	296673
16.74657	329548
16.75283	371305
16.75908	467798
16.76533	737135
16.77160	1371845
16.77785	2348621
16.78410	3156848
16.79037	3236404
16.79662	2740878
16.80287	2216696
16.80913	2271504
16.81538	2763210
16.82163	4096164
16.82790	6951203
16.83415	1.106123E+07
16.84040	1.526542E+07
16.84667	1.652116E+07
16.85292	1.395399E+07
16.85917	9351374
16.86543	5226743
16.87168	3071731
16.87793	2616544
16.88420	3004597
16.89045	3454326
16.89670	3532302
16.90297	3233902
16.90922	2676063
16.91547	2221818
16.92173	2422131
16.92798	3264276
16.93423	4177875
16.94048	4670094
16.94675	4974361
16.95300	5060750
16.95925	5410190
16.96552	5206462
16.97177	4397818
16.97802	2957253
16.98428	1717412
16.99053	1005321
16.99678	781952
17.00305	885865
17.00930	1497822
17.01555	3112035
17.02182	6516211
17.02807	1.194887E+07
17.03432	1.80242E+07
17.04058	2.45895E+07
17.04683	3.263036E+07
17.05308	4.235884E+07
17.05935	4.939102E+07
17.06560	5.246087E+07
17.07185	5.16764E+07
17.07812	4.767122E+07
17.08437	4.366351E+07
17.09062	4.104027E+07
17.09688	4.008776E+07
17.10313	4.061266E+07
17.10938	4.967719E+07
17.11565	2.479852E+07
17.12190	1.792737E+07
17.12815	1.93849E+07
17.13442	1.736947E+07
17.14067	1.380032E+07
17.14692	1.035083E+07
17.15317	1.202731E+07
17.15943	1.966412E+07
17.16568	3.166365E+07
17.17193	4.4023E+07
17.17820	5.019188E+07
17.18445	5.226568E+07
17.19070	4.972366E+07
17.19697	2.964029E+07
17.20322	7644429
17.20947	3159516
17.21573	3419639
17.22198	4215096
17.22823	5703468
17.23450	9763979
17.24075	1.81341E+07
17.24700	3.061597E+07
17.25327	4.151386E+07
17.25952	4.701148E+07
17.26577	4.760449E+07
17.27203	3.61356E+07
17.27828	1.626089E+07
17.28453	8060981
17.29080	1.035497E+07
17.29705	1.585079E+07
17.30330	1.964111E+07
17.30957	1.910772E+07
17.31582	1.288461E+07
17.32207	6333433
17.32833	2877433
17.33458	1601797
17.34083	1202419
17.34710	1029851
17.35335	923742
17.35960	822045
17.36587	771269
17.37212	729419
17.37837	721847
17.38462	741740
17.39088	777089
17.39713	839077
17.40338	949802
17.40965	1118106
17.41590	1257095
17.42215	1312317
17.42842	1267813
17.43467	1290884
17.44092	1572363
17.44718	2437301
17.45343	3939442
17.45968	5158237
17.46595	5426645
17.47220	3977468
17.47845	2206537
17.48472	1209316
17.49097	881653
17.49722	825406
17.50348	847247
17.50973	986909
17.51598	1194055
17.52225	1457668
17.52850	1420125
17.53475	1137180
17.54102	853243
17.54727	711184
17.55352	792651
17.55978	1168620
17.56603	2245521
17.57228	5095215
17.57855	9838344
17.58480	1.405098E+07
17.59105	1.508657E+07
17.59730	1.160137E+07
17.60357	5443133
17.60982	2180741
17.61607	1310769
17.62233	1311432
17.62858	1435033
17.63483	1333848
17.64110	1055354
17.64735	832733
17.65360	676772
17.65987	610322
17.66612	560106
17.67237	521533
17.67863	507930
17.68488	533781
17.69113	558540
17.69740	597917
17.70365	636883
17.70990	655714
17.71617	604364
17.72242	539519
17.72867	485138
17.73493	484033
17.74118	502818
17.74743	557616
17.75370	584112
17.75995	607029
17.76620	657054
17.77247	773140
17.77872	980888
17.78497	1281677
17.79123	1767347
17.79748	2923785
17.80373	4996468
17.81000	7748158
17.81625	1.025521E+07
17.82250	1.129553E+07
17.82875	8968842
17.83502	5252791
17.84127	2886020
17.84752	1747455
17.85378	1386401
17.86003	1920935
17.86628	4361923
17.87255	9892774
17.87880	1.722488E+07
17.88505	2.212811E+07
17.89132	2.026764E+07
17.89757	1.185047E+07
17.90382	4602714
17.91008	1539906
17.91633	869362
17.92258	725312
17.92885	691321
17.93510	645996
17.94135	613128
17.94762	588691
17.95387	593101
17.96012	609057
17.96638	642222
17.97263	657458
17.97888	652281
17.98515	677586
17.99140	752243
17.99765	912849
18.00392	1182113
18.01017	1503232
18.01642	1649896
18.02268	1463571
18.02893	1137954
18.03518	899008
18.04143	741982
18.04770	641406
18.05395	567651
18.06020	510803
18.06647	463376
18.07272	433844
18.07897	432382
18.08523	453401
18.09148	511028
18.09773	583601
18.10400	629648
18.11025	620364
18.11650	617789
18.12277	767233
18.12902	1242009
18.13527	2460009
18.14153	4271013
18.14778	5851604
18.15403	5539051
18.16030	3675103
18.16655	1851773
18.17280	963991
18.17907	657634
18.18532	545126
18.19157	487587
18.19783	458093
18.20408	449670
18.21033	506831
18.21660	622282
18.22285	725569
18.22910	696481
18.23537	606899
18.24162	481897
18.24787	428427
18.25413	418999
18.26038	430761
18.26663	470528
18.27288	524471
18.27915	587347
18.28540	686259
18.29165	915465
18.29792	1342418
18.30417	1986519
18.31042	2386421
18.31668	2379125
18.32293	2075311
18.32918	1535384
18.33545	1014175
18.34170	600549
18.34795	423126
18.35422	382312
18.36047	400912
18.36672	407688
18.37298	409497
18.37923	432638
18.38548	513116
18.39175	603382
18.39800	622047
18.40425	585691
18.41052	567474
18.41677	552468
18.42302	540827
18.42928	480782
18.43553	428625
18.44178	421230
18.44805	391909
18.45430	358914
18.46055	336335
18.46682	331598
18.47307	336899
18.47932	334651
18.48557	311632
18.49183	293608
18.49808	281206
18.50433	278269
18.51060	285297
18.51685	292000
18.52310	297272
18.52937	298185
18.53562	297914
18.54187	306930
18.54813	310060
18.55438	338228
18.56063	344340
18.56690	355189
18.57315	340190
18.57940	320180
18.58567	321568
18.59192	359146
18.59817	447810
18.60443	589199
18.61068	795284
18.61693	923129
18.62320	908442
18.62945	749576
18.63570	538279
18.64197	462930
18.64822	455314
18.65447	442985
18.66073	408006
18.66698	377912
18.67323	366007
18.67950	344761
18.68575	332467
18.69200	311870
18.69827	319895
18.70452	338003
18.71077	397722
18.71702	449104
18.72328	448402
18.72953	418635
18.73578	375950
18.74205	325517
18.74830	297958
18.75455	307851
18.76082	304360
18.76707	302401
18.77332	295581
18.77958	284323
18.78583	265084
18.79208	259988
18.79835	254462
18.80460	260145
18.81085	267980
18.81712	283429
18.82337	284407
18.82962	287618
18.83588	288824
18.84213	289074
18.84838	281350
18.85465	314119
18.86090	447544
18.86715	830476
18.87342	1760683
18.87967	4094027
18.88592	1.032625E+07
18.89218	2.150362E+07
18.89843	3.623401E+07
18.90468	4.967208E+07
18.91095	5.586081E+07
18.91720	5.632816E+07
18.92345	5.134681E+07
18.92970	2.789811E+07
18.93597	7594683
18.94222	1671314
18.94847	755892
18.95473	566080
18.96098	444433
18.96723	369026
18.97350	326351
18.97975	305970
18.98600	296080
18.99227	295931
18.99852	297769
19.00477	317882
19.01103	334816
19.01728	349687
19.02353	333793
19.02980	313931
19.03605	303433
19.04230	312553
19.04857	340009
19.05482	358315
19.06107	348411
19.06733	338650
19.07358	332493
19.07983	362211
19.08610	409980
19.09235	459019
19.09860	478878
19.10487	478196
19.11112	430998
19.11737	387552
19.12363	352631
19.12988	344497
19.13613	362656
19.14238	361609
19.14865	351809
19.15490	326502
19.16115	307144
19.16742	277601
19.17367	257797
19.17992	252862
19.18618	261351
19.19243	270816
19.19868	277609
19.20495	281068
19.21120	281562
19.21745	272991
19.22372	265935
19.22997	244736
19.23622	237324
19.24248	241979
19.24873	241011
19.25498	228521
19.26125	221843
19.26750	215738
19.27375	212170
19.28002	225722
19.28627	234934
19.29252	249357
19.29878	247866
19.30503	241679
19.31128	230274
19.31755	215308
19.32380	215894
19.33005	218209
19.33632	230972
19.34257	260122
19.34882	297210
19.35508	325759
19.36133	330854
19.36758	319598
19.37383	294112
19.38010	283864
19.38635	281792
19.39260	288036
19.39887	307403
19.40512	330634
19.41137	339934
19.41763	337627
19.42388	307052
19.43013	279457
19.43640	277623
19.44265	297482
19.44890	321777
19.45517	327617
19.46142	313100
19.46767	279340
19.47393	264842
19.48018	251971
19.48643	259740
19.49270	269798
19.49895	286120
19.50520	293283
19.51147	305400
19.51772	323683
19.52397	316538
19.53023	321517
19.53648	312981
19.54273	349853
19.54900	422896
19.55525	474364
19.56150	482983
19.56777	423267
19.57402	346256
19.58027	280567
19.58652	255553
19.59278	242204
19.59903	246726
19.60528	245904
19.61155	241416
19.61780	241673
19.62405	257620
19.63032	300123
19.63657	355263
19.64282	396043
19.64908	377350
19.65533	340367
19.66158	314765
19.66785	338232
19.67410	403986
19.68035	502328
19.68662	528803
19.69287	514348
19.69912	432795
19.70538	396977
19.71163	380464
19.71788	366240
19.72415	354824
19.73040	351239
19.73665	355140
19.74292	356859
19.74917	355991
19.75542	340830
19.76168	339707
19.76793	356567
19.77418	366451
19.78045	376345
19.78670	369544
19.79295	379134
19.79920	429085
19.80547	493119
19.81172	491765
19.81797	410618
19.82423	323102
19.83048	279011
19.83673	242745
19.84300	240753
19.84925	251892
19.85550	299025
19.86177	358097
19.86802	435953
19.87427	457111
19.88053	409109
19.88678	357332
19.89303	315112
19.89930	356360
19.90555	613394
19.91180	1429546
19.91807	3298855
19.92432	5770781
19.93057	7298104
19.93683	6514920
19.94308	3881588
19.94933	1708533
19.95560	709681
19.96185	536575
19.96810	653944
19.97437	910887
19.98062	1199507
19.98687	1290894
19.99313	1119150
19.99938	862765
20.00563	625104
20.01190	449465
20.01815	385549
20.02440	360133
20.03065	344540
20.03692	343561
20.04317	376598
20.04942	427272
20.05568	457695
20.06193	447328
20.06818	371275
20.07445	314087
20.08070	287335
20.08695	297800
20.09322	338789
20.09947	378877
20.10572	375314
20.11198	339387
20.11823	294408
20.12448	276230
20.13075	278152
20.13700	278656
20.14325	293648
20.14952	293251
20.15577	282588
20.16202	270740
20.16828	269740
20.17453	268210
20.18078	270213
20.18705	288118
20.19330	313321
20.19955	344637
20.20582	399472
20.21207	465017
20.21832	570728
20.22458	668186
20.23083	714436
20.23708	702681
20.24333	568347
20.24960	475267
20.25585	401924
20.26210	346002
20.26837	318074
20.27462	304389
20.28087	322275
20.28713	409506
20.29338	676567
20.29963	1225509
20.30590	1803585
20.31215	2046712
20.31840	1654430
20.32467	1005497
20.33092	615915
20.33717	426977
20.34343	383996
20.34968	419327
20.35593	419708
20.36220	390529
20.36845	348591
20.37470	323436
20.38097	317037
20.38722	326832
20.39347	335369
20.39973	351892
20.40598	373800
20.41223	434187
20.41850	566485
20.42475	781975
20.43100	1190751
20.43727	2179372
20.44352	3033171
20.44977	3229998
20.45602	2645206
20.46228	1694701
20.46853	1011936
20.47478	800520
20.48105	925264
20.48730	1218461
20.49355	1240627
20.49982	1032899
20.50607	744510
20.51232	539758
20.51858	490047
20.52483	499096
20.53108	493133
20.53735	500747
20.54360	562949
20.54985	710947
20.55612	909917
20.56237	967615
20.56862	829129
20.57488	632554
20.58113	535297
20.58738	546247
20.59365	629762
20.59990	666701
20.60615	617010
20.61242	534700
20.61867	460540
20.62492	394581
20.63118	334285
20.63743	309843
20.64368	311655
20.64995	347550
20.65620	397831
20.66245	428786
20.66872	433873
20.67497	406218
20.68122	366984
20.68747	339043
20.69373	318501
20.69998	330330
20.70623	438171
20.71250	729997
20.71875	1259004
20.72500	1846581
20.73127	2051048
20.73752	1762053
20.74377	1162711
20.75003	778438
20.75628	747320
20.76253	999353
20.76880	1383126
20.77505	1669710
20.78130	1625433
20.78757	1247997
20.79382	885594
20.80007	660708
20.80633	518281
20.81258	421691
20.81883	371620
20.82510	352790
20.83135	375642
20.83760	411631
20.84387	453345
20.85012	461776
20.85637	455806
20.86263	438582
20.86888	413809
20.87513	391300
20.88140	373690
20.88765	371995
20.89390	389380
20.90015	415111
20.90642	436012
20.91267	458725
20.91892	472209
20.92518	500809
20.93143	624767
20.93768	959147
20.94395	1563727
20.95020	2007787
20.95645	2051081
20.96272	1645811
20.96897	1178573
20.97522	885778
20.98148	732244
20.98773	612003
20.99398	536650
21.00025	585537
21.00650	763425
21.01275	1037656
21.01902	1161825
21.02527	1051176
21.03152	825408
21.03778	665562
21.04403	606933
21.05028	572351
21.05655	536414
21.06280	499670
21.06905	490337
21.07532	514290
21.08157	540249
21.08782	542251
21.09408	497092
21.10033	420121
21.10658	380730
21.11285	399284
21.11910	423984
21.12535	425346
21.13160	395479
21.13787	363621
21.14412	334668
21.15037	329141
21.15663	334390
21.16288	341398
21.16913	346218
21.17540	365424
21.18165	352029
21.18790	360919
21.19417	348309
21.20042	347721
21.20667	346789
21.21293	365115
21.21918	365811
21.22543	365260
21.23170	372816
21.23795	421872
21.24420	485791
21.25047	531497
21.25672	507138
21.26297	450973
21.26923	424690
21.27548	446311
21.28173	503784
21.28800	575907
21.29425	573274
21.30050	514464
21.30677	422869
21.31302	378187
21.31927	375764
21.32553	410754
21.33178	428784
21.33803	418643
21.34428	382179
21.35055	369791
21.35680	391129
21.36305	473259
21.36932	585100
21.37557	642389
21.38182	591894
21.38808	481998
21.39433	394951
21.40058	346837
21.40685	339640
21.41310	356135
21.41935	403248
21.42562	435576
21.43187	448191
21.43812	452335
21.44438	432056
21.45063	476406
21.45688	601037
21.46315	779535
21.46940	882467
21.47565	830690
21.48192	697141
21.48817	585211
21.49442	561174
21.50068	610701
21.50693	625985
21.51318	577632
21.51945	473425
21.52570	371739
21.53195	328346
21.53822	316640
21.54447	319311
21.55072	309920
21.55698	300172
21.56323	307434
21.56948	345229
21.57573	371673
21.58200	402275
21.58825	400136
21.59450	415251
21.60077	424256
21.60702	410253
21.61327	370204
21.61953	312079
21.62578	268762
21.63203	245727
21.63830	228469
21.64455	220604
21.65080	215709
21.65707	220634
21.66332	229842
21.66957	240289
21.67583	259572
21.68208	294691
21.68833	308089
21.69460	300964
21.70085	283516
21.70710	257589
21.71337	237088
21.71962	222609
21.72587	221537
21.73213	226595
21.73838	231420
21.74463	246104
21.75090	266263
21.75715	297779
21.76340	302069
21.76967	298007
21.77592	314297
21.78217	351057
21.78842	426779
21.79468	519365
21.80093	518830
21.80718	499949
21.81345	460417
21.81970	445065
21.82595	407688
21.83222	367258
21.83847	344120
21.84472	360275
21.85098	394847
21.85723	412593
21.86348	455040
21.86975	492807
21.87600	468746
21.88225	394463
21.88852	341228
21.89477	329613
21.90102	370585
21.90728	428268
21.91353	448904
21.91978	447626
21.92605	368921
21.93230	316813
21.93855	297796
21.94482	288697
21.95107	272600
21.95732	256285
21.96358	253579
21.96983	258953
21.97608	289420
21.98235	325195
21.98860	358956
21.99485	359965
22.00112	345182
22.00737	327556
22.01362	309229
22.01987	297946
22.02613	294890
22.03238	326744
22.03863	369765
22.04490	409253
22.05115	434731
22.05740	450172
22.06367	476229
22.06992	485662
22.07617	494543
22.08243	489963
22.08868	448307
22.09493	411522
22.10120	384210
22.10745	362785
22.11370	358560
22.11997	367106
22.12622	376824
22.13247	382779
22.13873	360706
22.14498	331694
22.15123	320197
22.15750	316382
22.16375	325362
22.17000	341775
22.17627	360689
22.18252	371410
22.18877	384763
22.19503	378462
22.20128	363818
22.20753	334238
22.21380	308239
22.22005	304557
22.22630	305302
22.23255	319655
22.23882	356440
22.24507	445059
22.25132	593637
22.25758	755694
22.26383	860091
22.27008	847366
22.27635	732435
22.28260	617506
22.28885	565669
22.29512	510904
22.30137	487861
22.30762	438132
22.31388	407701
22.32013	378657
22.32638	377874
22.33265	382791
22.33890	380820
22.34515	411442
22.35142	593685
22.35767	1064773
22.36392	1822904
22.37018	2270105
22.37643	2286609
22.38268	1543907
22.38895	929402
22.39520	542328
22.40145	412260
22.40772	379316
22.41397	394863
22.42022	412584
22.42648	445278
22.43273	504109
22.43898	591472
22.44523	726372
22.45150	909868
22.45775	1167081
22.46400	1316407
22.47027	1306061
22.47652	1048067
22.48277	739393
22.48903	599234
22.49528	516867
22.50153	471886
22.50780	443343
22.51405	408508
22.52030	390385
22.52657	385286
22.53282	451420
22.53907	609218
22.54533	836051
22.55158	1085396
22.55783	1123572
22.56410	1025510
22.57035	825729
22.57660	622828
22.58287	516431
22.58912	470620
22.59537	446089
22.60163	432998
22.60788	422827
22.61413	410972
22.62040	412259
22.62665	420044
22.63290	454195
22.63917	529513
22.64542	630051
22.65167	647332
22.65793	582540
22.66418	507758
22.67043	476970
22.67668	506161
22.68295	540674
22.68920	549731
22.69545	523150
22.70172	464691
22.70797	388560
22.71422	350168
22.72048	336941
22.72673	338121
22.73298	345207
22.73925	349798
22.74550	364771
22.75175	377410
22.75802	399241
22.76427	393923
22.77052	425256
22.77678	508705
22.78303	887075
22.78928	2413243
22.79555	6088787
22.80180	1.235568E+07
22.80805	1.954711E+07
22.81432	2.561168E+07
22.82057	2.485259E+07
22.82682	1.58283E+07
22.83308	6261193
22.83933	2281937
22.84558	1049229
22.85185	681479
22.85810	582838
22.86435	526738
22.87062	502481
22.87687	462569
22.88312	440472
22.88937	421354
22.89563	401868
22.90188	404244
22.90813	412057
22.91440	416768
22.92065	411820
22.92690	425451
22.93317	440731
22.93942	454133
22.94567	464091
22.95193	435537
22.95818	415110
22.96443	410358
22.97070	448456
22.97695	545005
22.98320	650779
22.98947	686771
22.99572	662523
23.00197	537217
23.00823	445758
23.01448	387234
23.02073	353028
23.02700	335379
23.03325	338086
23.03950	348465
23.04577	355377
23.05202	368295
23.05827	423924
23.06453	570417
23.07078	851898
23.07703	1152650
23.08330	1290869
23.08955	1140375
23.09580	841776
23.10205	567403
23.10832	430269
23.11457	365582
23.12082	339611
23.12708	321908
23.13333	318826
23.13958	315669
23.14585	308671
23.15210	303250
23.15835	289233
23.16462	280113
23.17087	273381
23.17712	281755
23.18338	286682
23.18963	301567
23.19588	308376
23.20215	311887
23.20840	306642
23.21465	301573
23.22092	290293
23.22717	289535
23.23342	280543
23.23968	282722
23.24593	293966
23.25218	308862
23.25845	310977
23.26470	303921
23.27095	299387
23.27722	284818
23.28347	277139
23.28972	286984
23.29598	324808
23.30223	407089
23.30848	541085
23.31475	688642
23.32100	774332
23.32725	734856
23.33350	574174
23.33977	438975
23.34602	363069
23.35227	332875
23.35853	312754
23.36478	307815
23.37103	298228
23.37730	300509
23.38355	307228
23.38980	310504
23.39607	320000
23.40232	317827
23.40857	301906
23.41483	299640
23.42108	293376
23.42733	299993
23.43360	319217
23.43985	342905
23.44610	423954
23.45237	496374
23.45862	605651
23.46487	657329
23.47113	649681
23.47738	678696
23.48363	781785
23.48990	832161
23.49615	833694
23.50240	865545
23.50867	961321
23.51492	1162014
23.52117	1258275
23.52743	1084227
23.53368	884770
23.53993	637112
23.54618	500226
23.55245	450339
23.55870	482820
23.56495	563206
23.57122	772684
23.57747	960218
23.58372	1113519
23.58998	1104433
23.59623	929182
23.60248	731129
23.60875	605677
23.61500	519367
23.62125	465868
23.62752	451092
23.63377	474171
23.64002	526648
23.64628	556104
23.65253	519837
23.65878	456454
23.66505	392830
23.67130	359562
23.67755	352781
23.68382	360784
23.69007	376127
23.69632	390678
23.70258	397371
23.70883	421683
23.71508	503118
23.72135	692966
23.72760	947822
23.73385	1120126
23.74012	1101264
23.74637	839967
23.75262	579637
23.75887	440894
23.76513	384221
23.77138	377925
23.77763	368773
23.78390	374269
23.79015	386801
23.79640	384336
23.80267	414678
23.80892	450377
23.81517	499531
23.82143	542779
23.82768	543697
23.83393	513715
23.84020	454752
23.84645	416733
23.85270	400887
23.85897	399608
23.86522	395092
23.87147	429717
23.87773	479572
23.88398	564333
23.89023	681128
23.89650	744994
23.90275	711137
23.90900	617823
23.91527	528736
23.92152	470242
23.92777	462011
23.93403	442973
23.94028	447941
23.94653	498197
23.95280	727459
23.95905	1462544
23.96530	3246414
23.97157	5929202
23.97782	9854415
23.98407	1.536473E+07
23.99032	2.275282E+07
23.99658	3.092008E+07
24.00283	3.501927E+07
24.00908	3.214769E+07
24.01535	2.256864E+07
24.02160	1.127013E+07
24.02785	4757967
24.03412	2248670
24.04037	1428410
24.04662	1136159
24.05288	975677
24.05913	907359
24.06538	967639
24.07165	1225148
24.07790	1482166
24.08415	1571008
24.09042	1505973
24.09667	1604346
24.10292	2335982
24.10918	4185206
24.11543	6242843
24.12168	8133939
24.12795	7672770
24.13420	5930527
24.14045	3501687
24.14672	1926831
24.15297	1170895
24.15922	851369
24.16548	746971
24.17173	708831
24.17798	747070
24.18425	928363
24.19050	1258473
24.19675	1880470
24.20300	3482803
24.20927	7222363
24.21552	1.37126E+07
24.22177	2.309303E+07
24.22803	3.251841E+07
24.23428	4.034171E+07
24.24053	4.428929E+07
24.24680	4.550015E+07
24.25305	4.598244E+07
24.25930	4.516469E+07
24.26557	4.364446E+07
24.27182	4.253301E+07
24.27807	4.362295E+07
24.28433	3.156065E+07
24.29058	6917349
24.29683	3019135
24.30310	2210603
24.30935	1831349
24.31560	1588386
24.32187	1435133
24.32812	1360329
24.33437	1331522
24.34063	1339502
24.34688	1322161
24.35313	1347435
24.35940	1337347
24.36565	1405180
24.37190	1499301
24.37817	1532496
24.38442	1526301
24.39067	1395834
24.39693	1284191
24.40318	1171884
24.40943	1066520
24.41570	1059965
24.42195	1157830
24.42820	1423128
24.43445	1965987
24.44072	2443023
24.44697	2692917
24.45322	2420849
24.45948	1885558
24.46573	1347100
24.47198	1026440
24.47825	863012
24.48450	774270
24.49075	732096
24.49702	704215
24.50327	692245
24.50952	669740
24.51578	661990
24.52203	651919
24.52828	638047
24.53455	642727
24.54080	633949
24.54705	629894
24.55332	607258
24.55957	595066
24.56582	600571
24.57208	624945
24.57833	662103
24.58458	684296
24.59085	689675
24.59710	682295
24.60335	652336
24.60962	609442
24.61587	561030
24.62212	523506
24.62838	512069
24.63463	511043
24.64088	509233
24.64713	501574
24.65340	494079
24.65965	469959
24.66590	456842
24.67217	468057
24.67842	473277
24.68467	491675
24.69093	518870
24.69718	537829
24.70343	545336
24.70970	569762
24.71595	582961
24.72220	582859
24.72847	543857
24.73472	501716
24.74097	455971
24.74723	439311
24.75348	435921
24.75973	443679
24.76600	484156
24.77225	525187
24.77850	551585
24.78477	539273
24.79102	501498
24.79727	443711
24.80353	402466
24.80978	363808
24.81603	353613
24.82230	342697
24.82855	344836
24.83480	325734
24.84107	313936
24.84732	305405
24.85357	310536
24.85983	309792
24.86608	321269
24.87233	338565
24.87858	381336
24.88485	453563
24.89110	553398
24.89735	611141
24.90362	586567
24.90987	509859
24.91612	499071
24.92238	537230
24.92863	557086
24.93488	577527
24.94115	644539
24.94740	825518
24.95365	1138233
24.95992	1304916
24.96617	1109313
24.97242	834704
24.97868	603047
24.98493	468489
24.99118	411365
24.99745	380187
25.00370	364751
25.00995	354062
25.01622	347099
25.02247	352412
25.02872	362005
25.03498	370490
25.04123	378013
25.04748	379493
25.05375	363225
25.06000	351132
25.06625	347214
25.07252	341217
25.07877	339222
25.08502	345615
25.09127	345928
25.09753	342402
25.10378	338020
25.11003	329800
25.11630	325969
25.12255	328932
25.12880	331463
25.13507	325028
25.14132	317695
25.14757	300967
25.15383	287009
25.16008	291062
25.16633	293665
25.17260	327780
25.17885	405169
25.18510	523587
25.19137	590298
25.19762	585944
25.20387	506078
25.21013	396614
25.21638	331126
25.22263	297551
25.22890	277717
25.23515	267307
25.24140	264579
25.24767	261396
25.25392	266183
25.26017	262960
25.26643	264603
25.27268	273034
25.27893	325400
25.28520	423052
25.29145	546843
25.29770	647255
25.30395	647622
25.31022	563953
25.31647	455173
25.32272	357037
25.32898	313134
25.33523	293737
25.34148	282995
25.34775	272266
25.35400	269171
25.36025	274117
25.36652	281809
25.37277	283440
25.37902	286615
25.38528	319267
25.39153	394195
25.39778	645243
25.40405	1079595
25.41030	1547441
25.41655	1740621
25.42282	1521236
25.42907	1087220
25.43532	773098
25.44158	595238
25.44783	507224
25.45408	455854
25.46035	418911
25.46660	388498
25.47285	368005
25.47912	365877
25.48537	412151
25.49162	495079
25.49788	640555
25.50413	752422
25.51038	788798
25.51665	719198
25.52290	608446
25.52915	586446
25.53540	661497
25.54167	811824
25.54792	883905
25.55417	828717
25.56043	670815
25.56668	501431
25.57293	385731
25.57920	341304
25.58545	313044
25.59170	303923
25.59797	311492
25.60422	322028
25.61047	329573
25.61673	328358
25.62298	325526
25.62923	307075
25.63550	303979
25.64175	284894
25.64800	276093
25.65427	272138
25.66052	252329
25.66677	256413
25.67303	256656
25.67928	265275
25.68553	258591
25.69180	257689
25.69805	254140
25.70430	253928
25.71057	250033
25.71682	245382
25.72307	241493
25.72933	242302
25.73558	248485
25.74183	254031
25.74808	256097
25.75435	261878
25.76060	258057
25.76685	255338
25.77312	248895
25.77937	244017
25.78562	241333
25.79188	236211
25.79813	231620
25.80438	228044
25.81065	225770
25.81690	222220
25.82315	217756
25.82942	225004
25.83567	224090
25.84192	221104
25.84818	223797
25.85443	225523
25.86068	227881
25.86695	227864
25.87320	228711
25.87945	227074
25.88572	223415
25.89197	222239
25.89822	218585
25.90448	220142
25.91073	215169
25.91698	225306
25.92325	221107
25.92950	231260
25.93575	242562
25.94202	247885
25.94827	234921
25.95452	227953
25.96077	221306
25.96703	225502
25.97328	232431
25.97953	240935
25.98580	244420
25.99205	247790
25.99830	239657
26.00457	224268
26.01082	218803
26.01707	220686
26.02333	229855
26.02958	226232
26.03583	232183
26.04210	234910
26.04835	241921
26.05460	236178
26.06087	240525
26.06712	234116
26.07337	235291
26.07963	224818
26.08588	215157
26.09213	209009
26.09840	207034
26.10465	206152
26.11090	214356
26.11717	203899
26.12342	205642
26.12967	202322
26.13593	203056
26.14218	204524
26.14843	204745
26.15470	200875
26.16095	203354
26.16720	203218
26.17347	211046
26.17972	213740
26.18597	206487
26.19222	205470
26.19848	209974
26.20473	204345
26.21098	202054
26.21725	206850
26.22350	206210
26.22975	199930
26.23602	205834
26.24227	199372
26.24852	196305
26.25478	205048
26.26103	204258
26.26728	201100
26.27355	199707
26.27980	204417
26.28605	202788
26.29232	203563
26.29857	205983
26.30482	210820
26.31108	205397
26.31733	209097
26.32358	203267
26.32985	210566
26.33610	204648
26.34235	214211
26.34862	215286
26.35487	233412
26.36112	295514
26.36738	449122
26.37363	740647
26.37988	1130402
26.38615	1428953
26.39240	1316167
26.39865	962919
26.40490	579313
26.41117	370503
26.41742	297619
26.42367	260609
26.42993	253471
26.43618	248599
26.44243	242181
26.44870	234354
26.45495	233803
26.46120	235359
26.46747	237350
26.47372	240431
26.47997	232178
26.48623	234853
26.49248	232989
26.49873	230456
26.50500	234795
26.51125	227491
26.51750	237993
26.52377	250528
26.53002	264944
26.53627	276730
26.54253	271252
26.54878	250714
26.55503	235514
26.56130	225807
26.56755	227061
26.57380	218134
26.58007	220688
26.58632	222637
26.59257	223487
26.59883	232057
26.60508	242750
26.61133	258162
26.61758	267769
26.62385	266507
26.63010	248392
26.63635	242388
26.64262	248531
26.64887	312787
26.65512	496190
26.66138	883467
26.66763	1498290
26.67388	2043365
26.68015	2094019
26.68640	1714632
26.69265	1219671
26.69892	876990
26.70517	695965
26.71142	572760
26.71768	488297
26.72393	404478
26.73018	359617
26.73645	327225
26.74270	315673
26.74895	325908
26.75522	362951
26.76147	438542
26.76772	540601
26.77398	584274
26.78023	561522
26.78648	502170
26.79275	459272
26.79900	461441
26.80525	439555
26.81152	418366
26.81777	425110
26.82402	552436
26.83028	782170
26.83653	1097791
26.84278	1261674
26.84903	1131434
26.85530	819718
26.86155	551720
26.86780	410821
26.87407	366878
26.88032	391219
26.88657	456730
26.89283	539742
26.89908	753735
26.90533	1471103
26.91160	3385903
26.91785	7035623
26.92410	1.277693E+07
26.93037	2.099768E+07
26.93662	2.663433E+07
26.94287	2.820454E+07
26.94913	2.074481E+07
26.95538	9721585
26.96163	4084155
26.96790	2221196
26.97415	1431132
26.98040	941758
26.98667	665902
26.99292	525136
26.99917	476283
27.00543	543392
27.01168	782071
27.01793	1258092
27.02420	1891338
27.03045	2109882
27.03670	1916316
27.04297	1340028
27.04922	861009
27.05547	631364
27.06172	548596
27.06798	504001
27.07423	469275
27.08048	416009
27.08675	375160
27.09300	351300
27.09925	331991
27.10552	326055
27.11177	315967
27.11802	326675
27.12428	389411
27.13053	480573
27.13678	597420
27.14305	659109
27.14930	613632
27.15555	502459
27.16182	412739
27.16807	364898
27.17432	349191
27.18058	361755
27.18683	356021
27.19308	329784
27.19935	329325
27.20560	322538
27.21185	323140
27.21812	320269
27.22437	320877
27.23062	313155
27.23688	311185
27.24313	319973
27.24938	332096
27.25565	339887
27.26190	342183
27.26815	327072
27.27442	310373
27.28067	298299
27.28692	295358
27.29317	284240
27.29943	283952
27.30568	280432
27.31193	289000
27.31820	282508
27.32445	282657
27.33070	281200
27.33697	283107
27.34322	290902
27.34947	289101
27.35573	292632
27.36198	297966
27.36823	297512
27.37450	295495
27.38075	300888
27.38700	294679
27.39327	295226
27.39952	319124
27.40577	353626
27.41203	372309
27.41828	379612
27.42453	351839
27.43080	320478
27.43705	307638
27.44330	292731
27.44957	273567
27.45582	267793
27.46207	263309
27.46833	254580
27.47458	255418
27.48083	259374
27.48710	265091
27.49335	262899
27.49960	258557
27.50585	255674
27.51212	252107
27.51837	250083
27.52462	249645
27.53088	250573
27.53713	260593
27.54338	259254
27.54965	254206
27.55590	250391
27.56215	248219
27.56842	248509
27.57467	250791
27.58092	252276
27.58718	248077
27.59343	244160
27.59968	246475
27.60595	249430
27.61220	247765
27.61845	246831
27.62472	254900
27.63097	249353
27.63722	250974
27.64348	248432
27.64973	241977
27.65598	247861
27.66225	257217
27.66850	253613
27.67475	265065
27.68102	259698
27.68727	266476
27.69352	264769
27.69978	263482
27.70603	266621
27.71228	277092
27.71855	281516
27.72480	288712
27.73105	293311
27.73730	282101
27.74357	273315
27.74982	273765
27.75607	278309
27.76233	276930
27.76858	284754
27.77483	279911
27.78110	267117
27.78735	260647
27.79360	265030
27.79987	260319
27.80612	254724
27.81237	257465
27.81863	254551
27.82488	261806
27.83113	264688
27.83740	292645
27.84365	362043
27.84990	549769
27.85617	902948
27.86242	1382664
27.86867	1882135
27.87493	1957063
27.88118	1701529
27.88743	1255743
27.89370	911918
27.89995	685564
27.90620	567702
27.91247	483984
27.91872	434188
27.92497	400194
27.93123	375491
27.93748	353444
27.94373	339518
27.94998	334509
27.95625	328797
27.96250	317019
27.96875	315538
27.97502	319884
27.98127	323374
27.98752	315905
27.99378	317675
28.00003	327813
28.00628	324175
28.01255	319004
28.01880	297392
28.02505	295423
28.03132	295598
28.03757	290719
28.04382	286626
28.05008	285913
28.05633	275216
28.06258	276166
28.06885	281439
28.07510	284677
28.08135	271653
28.08762	272714
28.09387	270382
28.10012	280943
28.10638	277901
28.11263	277251
28.11888	269655
28.12515	274964
28.13140	280767
28.13765	277455
28.14392	270904
28.15017	267875
28.15642	275594
28.16268	268567
28.16893	278561
28.17518	271122
28.18143	265892
28.18770	267958
28.19395	266219
28.20020	265841
28.20647	266794
28.21272	266794
28.21897	263172
28.22523	265241
28.23148	267664
28.23773	270588
28.24400	272263
28.25025	264272
28.25650	265536
28.26277	265279
28.26902	264987
28.27527	263694
28.28153	261964
28.28778	264323
28.29403	261412
28.30030	257730
28.30655	262193
28.31280	267550
28.31907	259760
28.32532	267325
28.33157	268501
28.33783	261719
28.34408	257141
28.35033	263337
28.35660	266989
28.36285	264472
28.36910	262420
28.37537	262534
28.38162	270059
28.38787	266874
28.39412	264889
28.40038	271123
28.40663	263038
28.41288	272533
28.41915	264394
28.42540	270681
28.43165	259410
28.43792	262970
28.44417	268261
28.45042	265149
28.45668	257354
28.46293	257740
28.46918	258159
28.47545	256994
28.48170	265895
28.48795	262317
28.49422	262354
28.50047	266456
28.50672	267894
28.51298	266478
28.51923	260089
28.52548	270888
28.53175	257908
28.53800	252869
28.54425	253644
28.55052	254858
28.55677	254776
28.56302	259777
28.56928	259481
28.57553	248983
28.58178	263265
28.58805	258687
28.59430	249246
28.60055	254818
28.60680	254922
28.61307	252416
28.61932	254342
28.62557	252243
28.63183	252498
28.63808	253670
28.64433	262014
28.65060	254644
28.65685	258474
28.66310	256902
28.66937	251517
28.67562	255981
28.68187	257516
28.68813	259367
28.69438	257534
28.70063	254680
28.70690	252171
28.71315	261925
28.71940	251440
28.72567	264051
28.73192	258810
28.73817	255455
28.74443	253381
28.75068	261221
28.75693	249928
28.76320	253660
28.76945	248757
28.77570	254551
28.78197	249143
28.78822	245311
28.79447	246052
28.80073	245934
28.80698	245194
28.81323	254007
28.81950	247080
28.82575	246220
28.83200	251010
28.83825	245993
28.84452	253180
28.85077	243525
28.85702	250534
28.86328	240396
28.86953	248551
28.87578	244624
28.88205	246798
28.88830	242690
28.89455	241403
28.90082	243337
28.90707	250744
28.91332	246839
28.91958	242512
28.92583	240818
28.93208	239455
28.93835	243379
28.94460	242952
28.95085	241955
28.95712	238822
28.96337	242740
28.96962	241090
28.97588	245300
28.98213	247601
28.98838	245121
28.99465	254379
29.00090	243560
29.00715	248972
29.01342	245071
29.01967	246266
29.02592	248379
29.03218	244818
29.03843	242101
29.04468	239608
29.05093	243975
29.05720	246805
29.06345	250323
29.06970	238080
29.07597	244008
29.08222	248173
29.08847	239287
29.09473	243420
29.10098	242277
29.10723	242607
29.11350	250416
29.11975	248661
29.12600	245940
29.13227	242566
29.13852	239495
29.14477	241784
29.15103	237393
29.15728	236883
29.16353	245839
29.16980	241474
29.17605	237185
29.18230	241333
29.18857	244547
29.19482	249332
29.20107	253281
29.20733	263416
29.21358	306183
29.21983	378374
29.22610	496802
29.23235	641559
29.23860	828349
29.24487	1007786
29.25112	1074476
29.25737	975703
29.26362	842868
29.26988	682469
29.27613	555845
29.28238	477069
29.28865	417452
29.29490	376924
29.30115	347301
29.30742	330643
29.31367	320073
29.31992	317457
29.32618	298418
29.33243	297852
29.33868	291162
29.34495	278740
29.35120	285149
29.35745	285282
29.36372	279206
29.36997	273989
29.37622	267674
29.38248	269575
29.38873	270213
29.39498	259915
29.40125	257742
29.40750	258059
29.41375	254874
29.42002	251208
29.42627	260156
29.43252	252695
29.43878	250077
29.44503	250913
29.45128	247850
29.45755	255378
29.46380	251743
29.47005	253418
29.47632	247315
29.48257	251007
29.48882	248412
29.49507	241236
29.50133	247636
29.50758	247356
29.51383	240421
29.52010	245983
29.52635	242043
29.53260	240203
29.53887	249533
29.54512	241438
29.55137	238793
29.55763	236437
29.56388	248038
29.57013	244932
29.57640	242668
29.58265	243068
29.58890	238276
29.59517	236345
29.60142	237617
29.60767	238457
29.61393	236679
29.62018	235845
29.62643	245162
29.63270	236765
29.63895	239338
29.64520	237728
29.65147	242693
29.65772	233764
29.66397	235000
29.67023	241877
29.67648	232125
29.68273	238593
29.68900	229448
29.69525	236520
29.70150	228551
29.70775	231614
29.71402	233356
29.72027	236372
29.72652	239110
29.73278	236305
29.73903	235301
29.74528	234323
29.75155	234040
29.75780	233073
29.76405	229313
29.77032	231415
29.77657	226117
29.78282	235293
29.78908	234848
29.79533	231092
29.80158	230852
29.80785	236120
29.81410	236373
29.82035	229787
29.82662	228295
29.83287	233317
29.83912	232092
29.84538	235168
29.85163	225975
29.85788	232313
29.86415	234921
29.87040	235477
29.87665	227526
29.88292	234627
29.88917	225690
29.89542	226122
29.90168	225164
29.90793	235870
29.91418	230114
29.92045	235186
29.92670	235059
29.93295	225496
29.93920	223800
29.94547	233760
29.95172	226516
29.95797	231812
29.96423	223519
29.97048	221583
29.97673	229017
29.98300	231945
29.98925	227937
29.99550	230042
30.00177	221932
30.00802	229588
30.01427	230446
30.02053	228937
30.02678	224454
30.03303	224894
30.03930	218372
30.04555	223737
30.05180	223300
30.05807	226523
30.06432	223299
30.07057	224794
30.07683	223454
30.08308	232996
30.08933	224008
30.09560	222789
30.10185	223859
30.10810	220710
30.11437	232051
30.12062	226837
30.12687	226273
30.13313	231345
30.13938	222164
30.14563	219321
30.15188	218116
30.15815	221627
30.16440	226738
30.17065	225637
30.17692	218069
30.18317	225600
30.18942	225701
30.19568	218286
30.20193	221505
30.20818	225786
30.21445	219411
30.22070	217516
30.22695	211668
30.23322	216695
30.23947	225794
30.24572	224739
30.25198	221102
30.25823	219250
30.26448	217019
30.27075	224778
30.27700	214790
30.28325	215754
30.28952	222258
30.29577	219740
30.30202	217590
30.30828	223331
30.31453	213948
30.32078	215831
30.32705	215851
30.33330	212263
30.33955	217296
30.34582	223533
30.35207	219738
30.35832	214455
30.36458	218318
30.37083	214115
30.37708	213432
30.38333	223510
30.38960	211582
30.39585	214229
30.40210	213237
30.40837	214332
30.41462	216051
30.42087	215541
30.42713	210623
30.43338	212811
30.43963	213198
30.44590	219826
30.45215	214386
30.45840	212860
30.46467	212709
30.47092	214441
30.47717	216703
30.48343	211446
30.48968	220570
30.49593	217945
30.50220	208410
30.50845	217439
30.51470	212571
30.52097	212668
30.52722	217908
30.53347	213652
30.53973	210759
30.54598	209579
30.55223	215615
30.55850	217620
30.56475	215469
30.57100	214059
30.57727	216512
30.58352	212911
30.58977	210845
30.59602	213426
30.60228	212790
30.60853	214946
30.61478	213395
30.62105	208079
30.62730	218816
30.63355	217705
30.63982	211207
30.64607	210589
30.65232	210077
30.65858	220246
30.66483	220143
30.67108	217068
30.67735	222089
30.68360	230196
30.68985	238616
30.69612	243935
30.70237	245019
30.70862	243901
30.71488	240351
30.72113	236048
30.72738	223929
30.73365	221618
30.73990	215170
30.74615	219065
30.75242	214237
30.75867	211125
30.76492	213340
30.77118	222007
30.77743	221488
30.78368	216710
30.78995	219450
30.79620	213632
30.80245	216006
30.80872	213071
30.81497	208343
30.82122	210714
30.82747	212146
30.83373	205020
30.83998	211884
30.84623	207342
30.85250	208365
30.85875	208750
30.86500	208270
30.87127	217168
30.87752	209145
30.88377	211005
30.89003	204595
30.89628	212034
30.90253	209204
30.90880	207649
30.91505	213811
30.92130	215664
30.92757	210079
30.93382	207679
30.94007	211563
30.94633	210733
30.95258	211414
30.95883	217608
30.96510	229228
30.97135	242631
30.97760	265604
30.98387	301514
30.99012	336380
30.99637	371645
31.00263	408650
31.00888	444232
31.01513	454773
31.02140	445221
31.02765	425989
31.03390	390922
31.04015	363568
31.04642	322660
31.05267	299083
31.05892	275514
31.06518	262273
31.07143	250199
31.07768	240047
31.08395	239122
31.09020	232915
31.09645	232045
31.10272	224144
31.10897	225508
31.11522	228864
31.12148	225422
31.12773	223886
31.13398	223549
31.14025	221786
31.14650	219935
31.15275	220603
31.15902	213909
31.16527	218116
31.17152	213067
31.17778	214713
31.18403	216909
31.19028	215974
31.19655	217360
31.20280	214755
31.20905	212469
31.21532	209941
31.22157	211395
31.22782	215602
31.23408	215304
31.24033	212366
31.24658	210048
31.25283	209579
31.25910	209777
31.26535	208582
31.27160	207637
31.27787	212116
31.28412	210137
31.29037	209425
31.29663	212759
31.30288	202327
31.30913	210330
31.31540	202413
31.32165	205028
31.32790	204949
31.33417	200914
31.34042	213783
31.34667	208987
31.35293	207298
31.35918	205622
31.36543	212041
31.37170	205512
31.37795	205306
31.38420	202053
31.39047	213050
31.39672	204650
31.40297	211594
31.40923	201552
31.41548	203615
31.42173	209456
31.42800	209282
31.43425	204956
31.44050	202964
31.44677	207265
31.45302	203189
31.45927	204843
31.46553	201817
31.47178	202717
31.47803	204113
31.48428	209257
31.49055	204153
31.49680	200347
31.50305	206032
31.50932	206778
31.51557	203421
31.52182	200848
31.52808	199718
31.53433	207990
31.54058	196012
31.54685	200130
31.55310	207544
31.55935	198795
31.56562	204314
31.57187	202078
31.57812	198800
31.58438	206926
31.59063	202510
31.59688	198642
31.60315	196889
31.60940	197877
31.61565	202348
31.62192	197469
31.62817	195227
31.63442	207076
31.64068	204155
31.64693	201510
31.65318	196527
31.65945	197184
31.66570	203196
31.67195	193903
31.67822	194481
31.68447	202728
31.69072	199018
31.69697	196543
31.70323	199236
31.70948	202701
31.71573	197268
31.72200	201562
31.72825	199435
31.73450	200059
31.74077	200582
31.74702	193583
31.75327	194056
31.75953	199228
31.76578	195155
31.77203	198723
31.77830	194505
31.78455	199979
31.79080	196965
31.79707	189863
31.80332	198318
31.80957	193807
31.81583	197061
31.82208	191132
31.82833	199976
31.83460	195319
31.84085	189619
31.84710	193208
31.85337	191689
31.85962	195178
31.86587	193107
31.87213	193142
31.87838	197534
31.88463	196835
31.89090	193159
31.89715	192036
31.90340	199031
31.90965	191678
31.91592	200365
31.92217	193431
31.92842	194673
31.93468	195798
31.94093	194618
31.94718	193663
31.95345	198236
31.95970	195560
31.96595	191751
31.97222	193509
31.97847	191385
31.98472	190740
31.99098	191141
31.99723	197825
32.00348	191882
32.00975	197051
32.01600	190910
32.02225	193581
32.02852	193278
32.03477	187930
32.04102	184591
32.04728	185366
32.05353	194097
32.05978	189448
32.06605	187019
32.07230	193803
32.07855	191434
32.08482	191478
32.09107	194876
32.09732	189148
32.10358	195211
32.10983	191228
32.11608	195481
32.12235	188102
32.12860	190305
32.13485	189982
32.14110	194881
32.14737	189395
32.15362	189945
32.15987	190845
32.16613	191174
32.17238	183853
32.17863	191731
32.18490	187972
32.19115	193173
32.19740	189619
32.20367	182617
32.20992	188038
32.21617	187588
32.22243	183470
32.22868	185651
32.23493	186291
32.24120	184636
32.24745	188225
32.25370	184473
32.25997	184388
32.26622	184410
32.27247	183570
32.27873	185888
32.28498	180414
32.29123	182803
32.29750	181930
32.30375	181021
32.31000	183150
32.31627	180179
32.32252	184483
32.32877	189678
32.33503	184961
32.34128	178568
32.34753	183637
32.35378	181079
32.36005	181566
32.36630	175199
32.37255	183835
32.37882	182288
32.38507	176920
32.39132	183115
32.39758	177129
32.40383	179513
32.41008	184806
32.41635	185553
32.42260	188400
32.42885	187745
32.43512	183109
32.44137	189068
32.44762	182302
32.45388	185293
32.46013	179008
32.46638	176949
32.47265	174031
32.47890	177596
32.48515	179651
32.49142	175071
32.49767	175476
32.50392	175832
32.51018	180785
32.51643	187402
32.52268	187900
32.52895	183363
32.53520	184971
32.54145	183708
32.54772	186237
32.55397	181459
32.56022	182774
32.56647	182421
32.57273	185325
32.57898	182599
32.58523	172808
32.59150	175844
32.59775	178834
32.60400	178709
32.61027	174066
32.61652	177749
32.62277	184414
32.62903	181386
32.63528	182697
32.64153	185383
32.64780	183632
32.65405	177635
32.66030	180223
32.66657	186566
32.67282	180634
32.67907	184207
32.68533	185197
32.69158	180289
32.69783	181822
32.70410	177271
32.71035	175588
32.71660	182229
32.72287	189027
32.72912	185818
32.73537	180724
32.74163	187882
32.74788	179230
32.75413	174735
32.76040	176745
32.76665	169203
32.77290	171238
32.77917	178934
32.78542	178765
32.79167	169117
32.79792	173907
32.80418	174796
32.81043	172904
32.81668	171727
32.82295	172198
32.82920	175416
32.83545	166876
32.84172	171649
32.84797	165986
32.85422	176598
32.86048	168143
32.86673	180357
32.87298	185173
32.87925	182376
32.88550	182692
32.89175	185017
32.89802	180935
32.90427	181354
32.91052	182395
32.91678	185745
32.92303	187857
32.92928	182766
32.93555	181113
32.94180	185699
32.94805	188748
32.95432	178737
32.96057	185956
32.96682	188287
32.97308	186172
32.97933	182642
32.98558	181696
32.99185	185193
32.99810	184976
33.00435	182674
33.01062	187588
33.01687	179102
33.02312	182030
33.02937	179587
33.03563	183359
33.04188	182642
33.04813	179121
33.05440	183631
33.06065	180292
33.06690	184322
33.07317	178925
33.07942	182406
33.08567	181033
33.09193	182677
33.09818	178134
33.10443	182599
33.11070	185589
33.11695	183920
33.12320	185789
33.12947	188022
33.13572	188408
33.14197	182760
33.14823	190027
33.15448	197283
33.16073	194756
33.16700	195661
33.17325	203805
33.17950	196203
33.18577	195065
33.19202	195967
33.19827	192723
33.20453	189348
33.21078	197381
33.21703	189933
33.22330	184149
33.22955	181974
33.23580	181614
33.24205	179628
33.24832	179355
33.25457	185735
33.26082	178032
33.26708	174744
33.27333	184851
33.27958	178473
33.28585	176466
33.29210	181149
33.29835	178713
33.30462	174828
33.31087	180890
33.31712	181646
33.32338	187556
33.32963	189030
33.33588	195282
33.34215	203188
33.34840	207359
33.35465	212679
33.36092	226958
33.36717	228979
33.37342	223743
33.37968	226264
33.38593	222150
33.39218	223148
33.39845	214903
33.40470	203576
33.41095	201638
33.41722	195525
33.42347	193203
33.42972	187334
33.43598	182630
33.44223	187711
33.44848	183381
33.45475	190260
33.46100	188346
33.46725	181375
33.47350	186283
33.47977	180975
33.48602	184110
33.49227	179223
33.49853	179366
33.50478	183810
33.51103	178692
33.51730	184106
33.52355	178216
33.52980	180678
33.53607	176609
33.54232	176413
33.54857	176966
33.55483	178768
33.56108	174538
33.56733	182167
33.57360	176922
33.57985	178060
33.58610	179499
33.59237	175590
33.59862	173249
33.60487	172253
33.61113	175178
33.61738	178049
33.62363	179608
33.62990	170218
33.63615	167039
33.64240	161347
33.64867	165209
33.65492	170382
33.66117	167215
33.66743	166250
33.67368	169306
33.67993	165920
33.68618	165907
33.69245	170676
33.69870	164540
33.70495	159496
33.71122	165179
33.71747	159421
33.72372	158765
33.72998	160490
33.73623	152520
33.74248	167646
33.74875	155063
33.75500	152917
33.76125	146782
33.76752	145503
33.77377	142772
33.78002	140662
33.78628	142827
33.79253	140323
33.79878	138918
33.80505	137498
33.81130	141047
33.81755	141651
33.82382	140450
33.83007	142447
33.83632	141826
33.84258	139825
33.84883	138226
33.85508	138238
33.86135	140717
33.86760	142956
33.87385	139484
33.88012	141435
33.88637	141137
33.89262	139765
33.89887	141978
33.90513	139688
33.91138	137786
33.91763	136833
33.92390	136312
33.93015	140374
33.93640	145167
33.94267	145048
33.94892	139505
33.95517	141034
33.96143	138752
33.96768	141291
33.97393	140812
33.98020	136958
33.98645	136952
33.99270	140828
33.99897	139853
34.00522	134396
34.01147	141758
34.01773	141414
34.02398	136433
34.03023	139951
34.03650	138902
34.04275	134174
34.04900	139316
34.05527	136109
34.06152	135578
34.06777	140717
34.07403	137987
34.08028	138889
34.08653	140160
34.09280	136703
34.09905	137226
34.10530	142139
34.11157	141912
34.11782	135587
34.12407	137879
34.13032	140330
34.13658	139305
34.14283	138102
34.14908	136663
34.15535	136287
34.16160	137276
34.16785	137183
34.17412	135167
34.18037	136552
34.18662	136121
34.19288	136571
34.19913	138567
34.20538	138099
34.21165	134722
34.21790	138586
34.22415	138146
34.23042	140478
34.23667	141176
34.24292	136386
34.24918	133278
34.25543	135345
34.26168	137294
34.26795	133414
34.27420	137282
34.28045	136494
34.28672	140798
34.29297	135123
34.29922	141441
34.30548	136861
34.31173	137912
34.31798	137425
34.32425	139592
34.33050	134758
34.33675	140361
34.34300	135206
34.34927	137485
34.35552	137428
34.36177	135255
34.36803	136366
34.37428	139543
34.38053	138524
34.38680	138634
34.39305	138793
34.39930	137805
34.40557	133866
34.41182	135064
34.41807	138998
34.42433	140962
34.43058	135842
34.43683	140896
34.44310	136330
34.44935	134099
34.45560	134077
34.46187	136694
34.46812	137047
34.47437	139764
34.48063	133681
34.48688	135902
34.49313	138509
34.49940	132375
34.50565	134285
34.51190	134885
34.51817	135521
34.52442	134977
34.53067	132227
34.53693	136052
34.54318	132571
34.54943	133106
34.55568	140148
34.56195	131478
34.56820	135781
34.57445	137877
34.58072	133944
34.58697	138602
34.59322	137365
34.59948	137140
34.60573	134784
34.61198	134385
34.61825	135470
34.62450	139582
34.63075	140584
34.63702	136118
34.64327	135788
34.64952	137367
34.65578	135993
34.66203	133156
34.66828	134101
34.67455	135174
34.68080	134451
34.68705	137496
34.69332	132179
34.69957	134883
34.70582	133699
34.71208	131139
34.71833	134793
34.72458	136799
34.73085	133546
34.73710	131464
34.74335	138753
34.74962	136203
34.75587	138122
34.76212	134826
34.76838	133633
34.77463	132644
34.78088	133631
34.78713	134866
34.79340	138818
34.79965	134379
34.80590	129554
34.81217	131614
34.81842	135302
34.82467	132775
34.83093	136012
34.83718	130016
34.84343	134602
34.84970	133422
34.85595	135325
34.86220	133602
34.86847	133303
34.87472	131968
34.88097	132262
34.88723	128075
34.89348	133762
34.89973	131750
34.90600	133417
34.91225	132865
34.91850	131931
34.92477	134082
34.93102	131431
34.93727	131213
34.94353	131949
34.94978	133668
34.95603	135062
34.96230	133592
34.96855	131377
34.97480	131306
34.98107	131897
34.98732	132803
34.99357	132610
34.99982	132792
35.00608	133497
35.01233	132542
35.01858	132897
35.02485	131217
35.03110	134168
35.03735	130844
35.04362	136773
35.04987	132465
35.05612	133826
35.06238	127834
35.06863	131557
35.07488	133479
35.08115	129798
35.08740	131517
35.09365	129043
35.09992	133137
35.10617	131392
35.11242	130420
35.11868	129066
35.12493	132344
35.13118	130617
35.13745	131242
35.14370	129114
35.14995	134060
35.15622	133466
35.16247	133347
35.16872	134119
35.17498	135964
35.18123	142313
35.18748	137883
35.19375	142593
35.20000	137121
35.20625	142701
35.21250	133232
35.21877	129276
35.22502	128320
35.23127	131062
35.23753	127644
35.24378	132841
35.25003	128323
35.25630	130885
35.26255	126078
35.26880	135377
35.27507	137977
35.28132	135892
35.28757	135251
35.29383	129977
35.30008	135567
35.30633	130798
35.31260	134582
35.31885	128902
35.32510	128364
35.33137	130386
35.33762	133959
35.34387	129206
35.35013	133751
35.35638	129317
35.36263	126402
35.36890	135269
35.37515	154336
35.38140	160335
35.38767	150605
35.39392	136472
35.40017	141660
35.40643	140543
35.41268	139548
35.41893	145110
35.42520	149331
35.43145	148958
35.43770	158579
35.44395	149405
35.45022	155659
35.45647	154712
35.46272	161474
35.46898	164289
35.47523	164515
35.48148	160132
35.48775	163074
35.49400	162688
35.50025	161461
35.50652	158394
35.51277	164111
35.51902	163986
35.52528	163530
35.53153	162607
35.53778	161187
35.54405	166148
35.55030	162640
35.55655	165294
35.56282	158342
35.56907	160709
35.57532	160158
35.58158	162988
35.58783	168029
35.59408	159342
35.60035	158243
35.60660	159698
35.61285	160823
35.61912	163690
35.62537	165462
35.63162	164014
35.63788	157935
35.64413	160940
35.65038	158574
35.65665	162983
35.66290	157042
35.66915	162459
35.67540	157875
35.68167	157898
35.68792	157301
35.69417	156483
35.70043	160765
35.70668	159540
35.71293	157393
35.71920	156229
35.72545	159093
35.73170	161081
35.73797	155258
35.74422	154415
35.75047	158022
35.75673	157050
35.76298	156343
35.76923	160176
35.77550	155485
35.78175	155158
35.78800	156970
35.79427	155530
35.80052	157706
35.80677	155592
35.81303	158296
35.81928	155219
35.82553	154185
35.83180	153132
35.83805	153252
35.84430	157227
35.85057	158887
35.85682	155173
35.86307	153754
35.86933	157220
35.87558	162223
35.88183	159614
35.88808	156677
35.89435	163944
35.90060	152378
35.90685	156381
35.91312	159156
35.91937	158064
35.92562	155158
35.93188	156363
35.93813	155873
35.94438	156892
35.95065	157801
35.95690	158020
35.96315	152200
35.96942	157023
35.97567	156326
35.98192	159477
35.98818	152620
35.99443	152635
36.00068	153185
36.00695	154134
36.01320	154473
36.01945	158817
36.02572	150035
36.03197	153575
36.03822	159385
36.04448	160750
36.05073	159202
36.05698	150381
36.06325	155363
36.06950	157025
36.07575	153896
36.08202	154582
36.08827	153686
36.09452	153692
36.10078	153366
36.10703	153032
36.11328	156453
36.11953	153350
36.12580	158321
36.13205	153219
36.13830	153915
36.14457	155868
36.15082	156694
36.15707	154020
36.16333	158035
36.16958	155100
36.17583	156833
36.18210	151513
36.18835	149732
36.19460	154431
36.20087	153158
36.20712	159970
36.21337	157230
36.21963	159585
36.22588	159553
36.23213	164576
36.23840	171328
36.24465	174769
36.25090	183035
36.25717	188830
36.26342	205551
36.26967	211442
36.27593	224332
36.28218	229712
36.28843	240582
36.29470	249115
36.30095	263475
36.30720	276486
36.31347	286681
36.31972	294033
36.32597	300293
36.33222	291461
36.33848	286541
36.34473	291065
36.35098	273328
36.35725	260708
36.36350	242563
36.36975	233302
36.37602	224222
36.38227	216039
36.38852	205904
36.39478	195589
36.40103	187289
36.40728	183865
36.41355	177551
36.41980	173617
36.42605	171127
36.43232	167142
36.43857	166687
36.44482	172357
36.45108	165717
36.45733	165459
36.46358	160518
36.46985	161702
36.47610	160719
36.48235	162180
36.48862	160386
36.49487	164320
36.50112	158729
36.50738	162475
36.51363	157877
36.51988	158401
36.52615	162904
36.53240	158258
36.53865	155881
36.54490	156547
36.55117	160874
36.55742	157462
36.56367	165051
36.56993	160796
36.57618	159913
36.58243	162816
36.58870	165249
36.59495	159305
36.60120	161785
36.60747	160545
36.61372	164112
36.61997	159889
36.62623	162348
36.63248	159974
36.63873	158653
36.64500	162955
36.65125	160689
36.65750	158478
36.66377	157830
36.67002	155614
36.67627	157832
36.68253	152725
36.68878	151348
36.69503	150685
36.70130	146722
36.70755	149602
36.71380	146419
36.72007	145459
36.72632	144730
36.73257	145645
36.73883	143591
36.74508	151267
36.75133	152826
36.75760	146790
36.76385	149150
36.77010	143027
36.77635	143726
36.78262	146802
36.78887	149428
36.79512	147112
36.80138	142558
36.80763	150539
36.81388	155039
36.82015	147669
36.82640	150060
36.83265	143134
36.83892	143756
36.84517	144515
36.85142	146869
36.85768	144880
36.86393	136745
36.87018	136799
36.87645	134932
36.88270	133609
36.88895	134250
36.89522	138636
36.90147	129566
36.90772	134143
36.91398	131239
36.92023	125353
36.92648	125466
36.93275	123352
36.93900	122651
36.94525	123975
36.95152	123723
36.95777	121298
36.96402	120659
36.97028	124932
36.97653	124061
36.98278	123631
36.98903	121513
36.99530	124074
37.00155	122399
37.00780	121525
37.01407	125155
37.02032	121681
37.02657	120036
37.03283	124700
37.03908	124864
37.04533	122122
37.05160	128685
37.05785	122833
37.06410	122916
37.07037	122232
37.07662	123300
37.08287	123989
37.08913	125314
37.09538	120260
37.10163	119711
37.10790	124084
37.11415	118271
37.12040	122983
37.12667	123845
37.13292	122392
37.13917	123369
37.14543	120876
37.15168	121831
37.15793	125256
37.16420	121639
37.17045	123142
37.17670	121450
37.18297	120974
37.18922	119518
37.19547	122215
37.20172	121585
37.20798	124670
37.21423	120616
37.22048	116856
37.22675	120452
37.23300	122354
37.23925	119987
37.24552	122916
37.25177	122373
37.25802	121964
37.26428	121859
37.27053	122277
37.27678	120498
37.28305	125437
37.28930	120286
37.29555	119715
37.30182	119622
37.30807	120153
37.31432	118168
37.32058	121274
37.32683	120551
37.33308	121501
37.33935	119237
37.34560	122841
37.35185	123129
37.35812	120788
37.36437	121768
37.37062	117276
37.37688	119797
37.38313	122236
37.38938	119573
37.39565	122211
37.40190	122738
37.40815	123285
37.41442	117967
37.42067	119103
37.42692	117446
37.43317	123847
37.43943	121795
37.44568	123164
37.45193	122502
37.45820	116513
37.46445	119226
37.47070	123937
37.47697	117843
37.48322	123729
37.48947	120504
