D:\MassHunter\GCMS\1\data\metastasis_lineages_3replicates_3runs_10302020\L_plate3_run3_10302020.D Sat Oct 31 16:26:25 2020
Start of data points
5.99338,169075
5.99963,172716
6.00588,175958
6.01215,193681
6.01840,209088
6.02465,225753
6.03092,216881
6.03717,235061
6.04342,244114
6.04968,250971
6.05593,225773
6.06218,221941
6.06845,234134
6.07470,264658
6.08095,285931
6.08722,288272
6.09347,257379
6.09972,273007
6.10598,507040
6.11223,1014298
6.11848,1401375
6.12475,1211479
6.13100,742068
6.13725,443979
6.14352,335539
6.14977,298161
6.15602,344773
6.16228,560012
6.16853,976806
6.17478,1333113
6.18105,1213132
6.18730,815932
6.19355,514084
6.19980,351994
6.20607,278848
6.21232,238052
6.21857,211702
6.22483,219550
6.23108,221632
6.23733,226662
6.24360,215062
6.24985,198477
6.25610,176926
6.26237,174229
6.26862,165690
6.27487,168055
6.28113,179117
6.28738,188536
6.29363,177705
6.29990,175151
6.30615,205950
6.31240,317383
6.31867,578653
6.32492,973909
6.33117,1567857
6.33743,2941936
6.34368,6367956
6.34993,1.147912E+07
6.35620,1.449487E+07
6.36245,1.107711E+07
6.36870,4447842
6.37497,1078273
6.38122,336436
6.38747,239719
6.39373,226445
6.39998,226883
6.40623,278989
6.41248,378648
6.41875,547200
6.42500,776664
6.43125,1025071
6.43752,1179445
6.44377,1061658
6.45002,753127
6.45628,683828
6.46253,1578804
6.46878,4348265
6.47505,9699894
6.48130,1.65241E+07
6.48755,2.330064E+07
6.49382,2.945616E+07
6.50007,3.531455E+07
6.50632,4.122942E+07
6.51258,4.550099E+07
6.51883,4.770731E+07
6.52508,4.793759E+07
6.53135,4.732714E+07
6.53760,4.132914E+07
6.54385,7431405
6.55012,973215
6.55637,824068
6.56262,836013
6.56888,829317
6.57513,1085102
6.58138,1888326
6.58765,2858924
6.59390,2796291
6.60015,1624257
6.60642,706693
6.61267,407273
6.61892,343973
6.62517,315022
6.63143,311790
6.63768,319509
6.64393,325314
6.65020,317046
6.65645,292085
6.66270,286017
6.66897,336266
6.67522,489390
6.68147,722038
6.68773,780544
6.69398,578533
6.70023,394146
6.70650,317860
6.71275,305612
6.71900,315874
6.72527,340589
6.73152,351485
6.73777,353575
6.74403,377911
6.75028,390966
6.75653,398469
6.76280,398388
6.76905,392743
6.77530,396838
6.78157,394742
6.78782,398453
6.79407,418622
6.80033,422823
6.80658,448660
6.81283,481104
6.81910,503532
6.82535,514528
6.83160,513089
6.83787,517252
6.84412,539337
6.85037,609755
6.85662,702062
6.86288,714107
6.86913,627534
6.87538,571145
6.88165,606626
6.88790,801154
6.89415,1091150
6.90042,1183181
6.90667,954846
6.91292,704474
6.91918,562313
6.92543,508322
6.93168,495465
6.93795,492022
6.94420,479879
6.95045,466319
6.95672,460273
6.96297,435198
6.96922,412591
6.97548,414462
6.98173,416035
6.98798,419952
6.99425,397920
7.00050,372719
7.00675,344168
7.01302,343119
7.01927,358516
7.02552,451148
7.03178,721856
7.03803,1329579
7.04428,2744472
7.05055,5402647
7.05680,7727581
7.06305,7437344
7.06930,4442618
7.07557,1757266
7.08182,566788
7.08807,281326
7.09433,228038
7.10058,206962
7.10683,186564
7.11310,181586
7.11935,168468
7.12560,159076
7.13187,157743
7.13812,180648
7.14437,247857
7.15063,387862
7.15688,533919
7.16313,534359
7.16940,377096
7.17565,224743
7.18190,156037
7.18817,141376
7.19442,134921
7.20067,133168
7.20693,146540
7.21318,149836
7.21943,149110
7.22570,145554
7.23195,143959
7.23820,149455
7.24447,177049
7.25072,195416
7.25697,259661
7.26323,428506
7.26948,684931
7.27573,827778
7.28200,697313
7.28825,450779
7.29450,269255
7.30075,196642
7.30702,169151
7.31327,162095
7.31952,157384
7.32578,153326
7.33203,150791
7.33828,154063
7.34455,153898
7.35080,150651
7.35705,142806
7.36332,137268
7.36957,126577
7.37582,122644
7.38208,126509
7.38833,131821
7.39458,150378
7.40085,165467
7.40710,157047
7.41335,160618
7.41962,209183
7.42587,301656
7.43212,421777
7.43838,502876
7.44463,523242
7.45088,436785
7.45715,298445
7.46340,203516
7.46965,162611
7.47592,154150
7.48217,169619
7.48842,184411
7.49468,220291
7.50093,255948
7.50718,318954
7.51343,344845
7.51970,309232
7.52595,212910
7.53220,158839
7.53847,137688
7.54472,133529
7.55097,197596
7.55723,595816
7.56348,2409034
7.56973,7195551
7.57600,1.557877E+07
7.58225,2.428849E+07
7.58850,2.871529E+07
7.59477,2.479961E+07
7.60102,1.285329E+07
7.60727,4582969
7.61353,2200987
7.61978,1429331
7.62603,996013
7.63230,720231
7.63855,511958
7.64480,352684
7.65107,263894
7.65732,230640
7.66357,215074
7.66983,221084
7.67608,275248
7.68233,372565
7.68860,421746
7.69485,373929
7.70110,287806
7.70737,214133
7.71362,231043
7.71987,333528
7.72613,415497
7.73238,438379
7.73863,366291
7.74488,277365
7.75115,234877
7.75740,200325
7.76365,183352
7.76992,163190
7.77617,162317
7.78242,173143
7.78868,172655
7.79493,166911
7.80118,164114
7.80745,164071
7.81370,162914
7.81995,178293
7.82622,224606
7.83247,288501
7.83872,330146
7.84498,325593
7.85123,295409
7.85748,305853
7.86375,359311
7.87000,413738
7.87625,411363
7.88252,338213
7.88877,268807
7.89502,229530
7.90128,198697
7.90753,201066
7.91378,218653
7.92005,221733
7.92630,211379
7.93255,192337
7.93882,185979
7.94507,201050
7.95132,264389
7.95757,363614
7.96383,431620
7.97008,398747
7.97633,329130
7.98260,324866
7.98885,383559
7.99510,589320
8.00137,972730
8.00762,1452087
8.01387,2022427
8.02013,2683575
8.02638,2799008
8.03263,2198632
8.03890,1440095
8.04515,1185926
8.05140,1370421
8.05767,1544656
8.06392,1294347
8.07017,832259
8.07643,487215
8.08268,395185
8.08893,515718
8.09520,687288
8.10145,767604
8.10770,802296
8.11397,961758
8.12022,1238788
8.12647,1345138
8.13273,990037
8.13898,550047
8.14523,338416
8.15150,288014
8.15775,263245
8.16400,227126
8.17027,200653
8.17652,174993
8.18277,174895
8.18902,175640
8.19528,170938
8.20153,167453
8.20778,166650
8.21405,166883
8.22030,169247
8.22655,203080
8.23282,284491
8.23907,380261
8.24532,423003
8.25158,366215
8.25783,293661
8.26408,244852
8.27035,229644
8.27660,227477
8.28285,245938
8.28912,261834
8.29537,283533
8.30162,258233
8.30788,208944
8.31413,163225
8.32038,136287
8.32665,127693
8.33290,140728
8.33915,147815
8.34542,152929
8.35167,153214
8.35792,162620
8.36418,168860
8.37043,170811
8.37668,159355
8.38295,153816
8.38920,146150
8.39545,177916
8.40170,271886
8.40797,462591
8.41422,662982
8.42047,631086
8.42673,434034
8.43298,291183
8.43923,252451
8.44550,258260
8.45175,247711
8.45800,215668
8.46427,187808
8.47052,172710
8.47677,170665
8.48303,170823
8.48928,172421
8.49553,166024
8.50180,180117
8.50805,204814
8.51430,203535
8.52057,194675
8.52682,167226
8.53307,146840
8.53933,134706
8.54558,131785
8.55183,140935
8.55810,164786
8.56435,255999
8.57060,439498
8.57687,721430
8.58312,1160601
8.58937,1703101
8.59563,2022541
8.60188,1930154
8.60813,1896952
8.61438,3476646
8.62065,7707461
8.62690,1.350338E+07
8.63315,1.65212E+07
8.63942,1.363009E+07
8.64567,6705082
8.65192,1991707
8.65818,515696
8.66443,260556
8.67068,243486
8.67695,252074
8.68320,255348
8.68945,254363
8.69572,249531
8.70197,242275
8.70822,247953
8.71448,273392
8.72073,274150
8.72698,243928
8.73325,222402
8.73950,222302
8.74575,234704
8.75202,259054
8.75827,226960
8.76452,186209
8.77078,150090
8.77703,141513
8.78328,139828
8.78955,141951
8.79580,130792
8.80205,128596
8.80832,129792
8.81457,129924
8.82082,147910
8.82708,226366
8.83333,536428
8.83958,1393637
8.84583,3123258
8.85210,5552317
8.85835,7960593
8.86460,8698817
8.87087,7919782
8.87712,6949121
8.88337,6857771
8.88963,7543732
8.89588,8709601
8.90213,9802765
8.90840,1.083516E+07
8.91465,1.197055E+07
8.92090,1.29139E+07
8.92717,1.377629E+07
8.93342,1.2642E+07
8.93967,3381823
8.94593,453063
8.95218,313211
8.95843,345117
8.96470,404471
8.97095,460853
8.97720,483699
8.98347,468581
8.98972,480077
8.99597,564199
9.00223,763293
9.00848,1017206
9.01473,1136210
9.02100,1011147
9.02725,725169
9.03350,571684
9.03977,787607
9.04602,1381783
9.05227,1902957
9.05852,1666494
9.06478,1008206
9.07103,505355
9.07728,289319
9.08355,234034
9.08980,225838
9.09605,228399
9.10232,227210
9.10857,216342
9.11482,193204
9.12108,172455
9.12733,162914
9.13358,169441
9.13985,198291
9.14610,222073
9.15235,241731
9.15862,287597
9.16487,342739
9.17112,372752
9.17738,390529
9.18363,412513
9.18988,476915
9.19615,548277
9.20240,505499
9.20865,385665
9.21492,259841
9.22117,196758
9.22742,174972
9.23368,187807
9.23993,250136
9.24618,347404
9.25245,381342
9.25870,328403
9.26495,238090
9.27120,172892
9.27747,143014
9.28372,141676
9.28997,153240
9.29623,178119
9.30248,249018
9.30873,367505
9.31500,521527
9.32125,692091
9.32750,733543
9.33377,654856
9.34002,575876
9.34627,659452
9.35253,745803
9.35878,700636
9.36503,510824
9.37130,386063
9.37755,759131
9.38380,2657520
9.39007,7131441
9.39632,1.2854E+07
9.40257,1.566546E+07
9.40883,1.329838E+07
9.41508,6669959
9.42133,2053143
9.42760,803538
9.43385,1382460
9.44010,4409277
9.44637,1.184073E+07
9.45262,2.433341E+07
9.45887,3.778693E+07
9.46513,4.510628E+07
9.47138,4.279501E+07
9.47763,3.109788E+07
9.48390,1.720976E+07
9.49015,5692100
9.49640,1249018
9.50265,416747
9.50892,275652
9.51517,256617
9.52142,256207
9.52768,246488
9.53393,248395
9.54018,240502
9.54645,232490
9.55270,229891
9.55895,211008
9.56522,199840
9.57147,208689
9.57772,230156
9.58398,233046
9.59023,228597
9.59648,225528
9.60275,237850
9.60900,259123
9.61525,284707
9.62152,281144
9.62777,238041
9.63402,200421
9.64028,178274
9.64653,178669
9.65278,185117
9.65905,192080
9.66530,188080
9.67155,213003
9.67782,462683
9.68407,1559687
9.69032,4897337
9.69658,1.049453E+07
9.70283,1.471178E+07
9.70908,1.38432E+07
9.71533,8423456
9.72160,3286836
9.72785,1797322
9.73410,2529975
9.74037,3449327
9.74662,3450806
9.75287,2216200
9.75913,1027617
9.76538,425061
9.77163,261319
9.77790,213184
9.78415,191947
9.79040,172576
9.79667,161636
9.80292,158641
9.80917,157136
9.81543,157396
9.82168,157643
9.82793,166656
9.83420,169878
9.84045,202748
9.84670,257059
9.85297,496687
9.85922,1506160
9.86547,4363473
9.87173,9155213
9.87798,1.325013E+07
9.88423,1.264907E+07
9.89050,7595237
9.89675,3203249
9.90300,1884762
9.90927,2315347
9.91552,2725666
9.92177,2037348
9.92803,1001567
9.93428,437990
9.94053,246143
9.94678,220916
9.95305,258026
9.95930,390691
9.96555,675824
9.97182,1073745
9.97807,1418206
9.98432,1670606
9.99058,1730640
9.99683,1594191
10.00308,1220095
10.00935,781486
10.01560,467346
10.02185,346091
10.02812,280229
10.03437,244156
10.04062,230375
10.04688,232502
10.05313,231070
10.05938,205804
10.06565,177558
10.07190,158284
10.07815,166208
10.08442,175246
10.09067,201466
10.09692,222496
10.10318,233105
10.10943,227255
10.11568,206387
10.12195,185101
10.12820,164393
10.13445,149891
10.14072,146957
10.14697,146344
10.15322,151961
10.15947,146677
10.16573,155948
10.17198,160737
10.17823,181394
10.18450,205501
10.19075,224457
10.19700,215412
10.20327,191044
10.20952,180489
10.21577,211871
10.22203,338516
10.22828,624470
10.23453,1080557
10.24080,1580696
10.24705,1717445
10.25330,1392698
10.25957,855391
10.26582,496630
10.27207,339235
10.27833,271121
10.28458,275416
10.29083,345037
10.29710,405563
10.30335,387937
10.30960,324318
10.31587,262874
10.32212,245041
10.32837,275894
10.33463,353651
10.34088,400016
10.34713,371071
10.35340,282379
10.35965,222616
10.36590,213813
10.37217,200278
10.37842,186923
10.38467,172560
10.39092,163618
10.39718,153231
10.40343,142202
10.40968,137089
10.41595,142034
10.42220,160460
10.42845,181749
10.43472,184163
10.44097,181336
10.44722,187603
10.45348,191698
10.45973,198413
10.46598,197525
10.47225,243489
10.47850,399966
10.48475,628053
10.49102,760392
10.49727,657744
10.50352,439909
10.50978,271750
10.51603,185512
10.52228,169153
10.52855,197880
10.53480,256625
10.54105,316795
10.54732,325999
10.55357,279424
10.55982,239023
10.56608,222093
10.57233,242421
10.57858,266962
10.58485,271915
10.59110,274645
10.59735,320552
10.60360,743393
10.60987,2307472
10.61612,5688568
10.62237,1.02054E+07
10.62863,1.258168E+07
10.63488,1.03791E+07
10.64113,5422553
10.64740,1959746
10.65365,602738
10.65990,272719
10.66617,224946
10.67242,239222
10.67867,252994
10.68493,249280
10.69118,214673
10.69743,186877
10.70370,169966
10.70995,171105
10.71620,184465
10.72247,206330
10.72872,212600
10.73497,214757
10.74123,202691
10.74748,196616
10.75373,190210
10.76000,195613
10.76625,201063
10.77250,212890
10.77877,222784
10.78502,214625
10.79127,214511
10.79753,211642
10.80378,227061
10.81003,273198
10.81630,361862
10.82255,405461
10.82880,374490
10.83505,279331
10.84132,210303
10.84757,189339
10.85382,204107
10.86008,216244
10.86633,223231
10.87258,223348
10.87885,214653
10.88510,202026
10.89135,203967
10.89762,216279
10.90387,228686
10.91012,223395
10.91638,208791
10.92263,203065
10.92888,212854
10.93515,221752
10.94140,207346
10.94765,189096
10.95392,190010
10.96017,287751
10.96642,780549
10.97268,2493963
10.97893,6569213
10.98518,1.275273E+07
10.99145,1.912873E+07
10.99770,2.015198E+07
11.00395,1.439938E+07
11.01022,6367939
11.01647,1696026
11.02272,454416
11.02898,275432
11.03523,305173
11.04148,332868
11.04773,336994
11.05400,370844
11.06025,417234
11.06650,411125
11.07277,343766
11.07902,255980
11.08527,215098
11.09153,226627
11.09778,281507
11.10403,323329
11.11030,311004
11.11655,276816
11.12280,250938
11.12907,253647
11.13532,267994
11.14157,273475
11.14783,287032
11.15408,352835
11.16033,514898
11.16660,682006
11.17285,734242
11.17910,616799
11.18537,417380
11.19162,265862
11.19787,214568
11.20413,212640
11.21038,239974
11.21663,269382
11.22290,271174
11.22915,257189
11.23540,234466
11.24167,232301
11.24792,270251
11.25417,377230
11.26042,618033
11.26668,1113235
11.27293,1852014
11.27918,2372090
11.28545,2257700
11.29170,1623685
11.29795,966196
11.30422,525527
11.31047,376549
11.31672,443069
11.32298,665184
11.32923,935314
11.33548,1031321
11.34175,827160
11.34800,469764
11.35425,264258
11.36052,202234
11.36677,193208
11.37302,193736
11.37928,183710
11.38553,173359
11.39178,163680
11.39805,174921
11.40430,184244
11.41055,193323
11.41682,192889
11.42307,189122
11.42932,203023
11.43558,295532
11.44183,527200
11.44808,849981
11.45435,1114279
11.46060,1023922
11.46685,685775
11.47312,399811
11.47937,278307
11.48562,248940
11.49187,242124
11.49813,231686
11.50438,213432
11.51063,198353
11.51690,185320
11.52315,181615
11.52940,181815
11.53567,198701
11.54192,216678
11.54817,239572
11.55443,237383
11.56068,214200
11.56693,186915
11.57320,169063
11.57945,172622
11.58570,175418
11.59197,186507
11.59822,194944
11.60447,188506
11.61073,190740
11.61698,189101
11.62323,194935
11.62950,191662
11.63575,193955
11.64200,193916
11.64827,210756
11.65452,234844
11.66077,247918
11.66703,241044
11.67328,222240
11.67953,200063
11.68580,192234
11.69205,199261
11.69830,214833
11.70455,237052
11.71082,279289
11.71707,318818
11.72332,340315
11.72958,322504
11.73583,297588
11.74208,268454
11.74835,239257
11.75460,228651
11.76085,242081
11.76712,266351
11.77337,284196
11.77962,291733
11.78588,265379
11.79213,261020
11.79838,260075
11.80465,260393
11.81090,261013
11.81715,263754
11.82342,322204
11.82967,504455
11.83592,812523
11.84218,1020704
11.84843,954519
11.85468,691331
11.86095,436942
11.86720,299011
11.87345,253084
11.87972,280881
11.88597,375183
11.89222,480334
11.89848,541865
11.90473,512622
11.91098,448474
11.91723,374171
11.92350,318547
11.92975,307372
11.93600,390837
11.94227,721026
11.94852,1584564
11.95477,3258391
11.96103,5622251
11.96728,7628429
11.97353,7344087
11.97980,4596235
11.98605,1881187
11.99230,798458
11.99857,603356
12.00482,640283
12.01107,586136
12.01733,508725
12.02358,435598
12.02983,430990
12.03610,522612
12.04235,730704
12.04860,976796
12.05487,1249400
12.06112,1258614
12.06737,991374
12.07363,653816
12.07988,475772
12.08613,445940
12.09240,456432
12.09865,468631
12.10490,450361
12.11117,382222
12.11742,323758
12.12367,280813
12.12993,266443
12.13618,263546
12.14243,246693
12.14868,232702
12.15495,220686
12.16120,216375
12.16745,220611
12.17372,236037
12.17997,259152
12.18622,307934
12.19248,367263
12.19873,460884
12.20498,573465
12.21125,728672
12.21750,866725
12.22375,912914
12.23002,832524
12.23627,694593
12.24252,684417
12.24878,842668
12.25503,1207281
12.26128,1721358
12.26755,2339844
12.27380,2584370
12.28005,2390617
12.28632,1718856
12.29257,982105
12.29882,534192
12.30508,352539
12.31133,289370
12.31758,255866
12.32385,231242
12.33010,233880
12.33635,253705
12.34262,315822
12.34887,389252
12.35512,456143
12.36137,473114
12.36763,447206
12.37388,408954
12.38013,440377
12.38640,530342
12.39265,570286
12.39890,517358
12.40517,414305
12.41142,328089
12.41767,292798
12.42393,300909
12.43018,337606
12.43643,384179
12.44270,379869
12.44895,342386
12.45520,292698
12.46147,280238
12.46772,324853
12.47397,434058
12.48023,671321
12.48648,993569
12.49273,1295474
12.49900,1377076
12.50525,1076465
12.51150,662820
12.51777,399816
12.52402,294557
12.53027,290309
12.53653,326933
12.54278,381522
12.54903,442031
12.55530,463830
12.56155,428667
12.56780,440833
12.57405,601650
12.58032,978759
12.58657,1703913
12.59282,2920924
12.59908,4898204
12.60533,8143207
12.61158,1.411574E+07
12.61785,2.26503E+07
12.62410,3.085364E+07
12.63035,3.374245E+07
12.63662,2.961642E+07
12.64287,1.956955E+07
12.64912,1.57122E+07
12.65538,1.865945E+07
12.66163,2.410576E+07
12.66788,2.883146E+07
12.67415,3.098475E+07
12.68040,2.841062E+07
12.68665,1.74773E+07
12.69292,5530997
12.69917,1312135
12.70542,623380
12.71168,647486
12.71793,863478
12.72418,1046232
12.73045,1062403
12.73670,1014648
12.74295,994200
12.74922,930682
12.75547,804732
12.76172,685612
12.76798,559803
12.77423,494108
12.78048,455065
12.78675,427186
12.79300,420808
12.79925,416673
12.80550,393054
12.81177,376247
12.81802,380258
12.82427,420348
12.83053,482093
12.83678,497922
12.84303,502600
12.84930,498622
12.85555,488714
12.86180,451366
12.86807,424857
12.87432,416147
12.88057,473354
12.88683,608980
12.89308,892679
12.89933,1158327
12.90560,1255203
12.91185,1113118
12.91810,936191
12.92437,720650
12.93062,529209
12.93687,391984
12.94313,315589
12.94938,305609
12.95563,301021
12.96190,282931
12.96815,273165
12.97440,266820
12.98067,276138
12.98692,291900
12.99317,321077
12.99943,364231
13.00568,405194
13.01193,441461
13.01818,496913
13.02445,603065
13.03070,776455
13.03695,912128
13.04322,887477
13.04947,670923
13.05572,494562
13.06198,473033
13.06823,741761
13.07448,1401936
13.08075,2519121
13.08700,3435375
13.09325,3644124
13.09952,2760928
13.10577,1575105
13.11202,889025
13.11828,575390
13.12453,431835
13.13078,373114
13.13705,363713
13.14330,383841
13.14955,380678
13.15582,376858
13.16207,360130
13.16832,347731
13.17458,327804
13.18083,306092
13.18708,288162
13.19335,267679
13.19960,254780
13.20585,259120
13.21212,266076
13.21837,283303
13.22462,308312
13.23088,356369
13.23713,408499
13.24338,409226
13.24963,394459
13.25590,376464
13.26215,374046
13.26840,369552
13.27467,385539
13.28092,393420
13.28717,482477
13.29343,677787
13.29968,1049014
13.30593,1544455
13.31220,1864182
13.31845,1704096
13.32470,1132338
13.33097,611245
13.33722,394282
13.34347,350458
13.34973,360704
13.35598,363164
13.36223,356833
13.36850,329183
13.37475,303225
13.38100,286895
13.38727,272755
13.39352,262310
13.39977,264404
13.40603,262703
13.41228,276022
13.41853,305119
13.42480,337262
13.43105,374199
13.43730,414194
13.44357,433824
13.44982,414227
13.45607,373092
13.46232,324147
13.46858,306472
13.47483,297044
13.48108,287766
13.48735,306285
13.49360,310897
13.49985,327003
13.50612,362472
13.51237,436474
13.51862,520029
13.52488,549667
13.53113,535848
13.53738,491926
13.54365,548691
13.54990,712554
13.55615,849338
13.56242,860496
13.56867,743162
13.57492,618121
13.58118,578911
13.58743,677943
13.59368,915063
13.59995,1192498
13.60620,1354243
13.61245,1283955
13.61872,1115149
13.62497,868295
13.63122,684434
13.63748,536782
13.64373,469588
13.64998,437608
13.65625,415821
13.66250,404803
13.66875,392975
13.67502,377211
13.68127,396959
13.68752,421210
13.69377,453778
13.70003,446600
13.70628,432837
13.71253,421655
13.71880,411501
13.72505,406700
13.73130,404310
13.73757,404670
13.74382,423998
13.75007,511797
13.75633,727403
13.76258,1102682
13.76883,1366554
13.77510,1267303
13.78135,930545
13.78760,662662
13.79387,721745
13.80012,1368565
13.80637,2758878
13.81263,5078202
13.81888,8587536
13.82513,1.342055E+07
13.83140,2.01231E+07
13.83765,2.67375E+07
13.84390,2.869241E+07
13.85017,2.189385E+07
13.85642,8922716
13.86267,2076960
13.86893,580571
13.87518,407913
13.88143,550643
13.88770,984960
13.89395,1837860
13.90020,3619900
13.90645,6427433
13.91272,9536966
13.91897,1.018682E+07
13.92522,7961340
13.93148,4226047
13.93773,1501543
13.94398,519056
13.95025,294676
13.95650,261187
13.96275,267959
13.96902,264486
13.97527,260888
13.98152,268281
13.98778,286212
13.99403,316785
14.00028,377990
14.00655,446044
14.01280,492252
14.01905,457080
14.02532,359112
14.03157,277808
14.03782,233366
14.04408,228519
14.05033,242471
14.05658,287504
14.06285,337185
14.06910,397459
14.07535,415677
14.08162,400165
14.08787,374649
14.09412,359180
14.10038,327660
14.10663,282401
14.11288,253719
14.11915,247255
14.12540,244785
14.13165,248620
14.13790,241467
14.14417,239392
14.15042,245767
14.15667,246159
14.16293,241812
14.16918,236268
14.17543,220386
14.18170,205316
14.18795,196383
14.19420,199598
14.20047,209517
14.20672,229356
14.21297,268212
14.21923,344380
14.22548,421511
14.23173,488887
14.23800,460321
14.24425,364966
14.25050,294188
14.25677,270036
14.26302,304681
14.26927,392889
14.27553,509095
14.28178,555826
14.28803,509235
14.29430,449793
14.30055,456310
14.30680,528516
14.31307,606195
14.31932,661086
14.32557,664524
14.33183,605733
14.33808,519626
14.34433,437196
14.35058,381433
14.35685,368777
14.36310,395476
14.36935,423277
14.37562,430191
14.38187,404583
14.38812,391990
14.39438,448180
14.40063,686496
14.40688,1417449
14.41315,2972371
14.41940,5138186
14.42565,6708285
14.43192,5875609
14.43817,3930194
14.44442,2171927
14.45068,1382104
14.45693,1231160
14.46318,1277499
14.46945,1334821
14.47570,1442217
14.48195,1502541
14.48822,1264173
14.49447,932875
14.50072,609586
14.50698,428193
14.51323,366153
14.51948,381457
14.52575,424756
14.53200,448687
14.53825,413770
14.54452,381981
14.55077,348598
14.55702,335759
14.56327,321471
14.56953,327854
14.57578,327189
14.58203,309792
14.58830,286713
14.59455,267468
14.60080,275272
14.60707,283478
14.61332,313275
14.61957,350725
14.62583,407429
14.63208,480806
14.63833,588674
14.64460,703099
14.65085,765208
14.65710,698284
14.66337,557316
14.66962,445414
14.67587,390346
14.68213,368246
14.68838,408391
14.69463,488211
14.70090,597139
14.70715,651199
14.71340,684269
14.71967,796256
14.72592,1109413
14.73217,1647569
14.73843,2291344
14.74468,2705536
14.75093,2600994
14.75720,2287180
14.76345,1953262
14.76970,1499873
14.77597,929478
14.78222,511245
14.78847,360972
14.79472,358539
14.80098,404562
14.80723,454814
14.81348,465479
14.81975,438328
14.82600,377015
14.83225,319892
14.83852,315280
14.84477,346754
14.85102,394804
14.85728,420893
14.86353,429933
14.86978,406471
14.87605,389759
14.88230,361231
14.88855,341659
14.89482,330339
14.90107,375541
14.90732,500811
14.91358,729188
14.91983,960576
14.92608,986978
14.93235,812854
14.93860,611370
14.94485,460226
14.95112,395076
14.95737,420056
14.96362,560047
14.96988,864504
14.97613,1292881
14.98238,1490634
14.98865,1368202
14.99490,934854
15.00115,580206
15.00740,404713
15.01367,322333
15.01992,293784
15.02617,279740
15.03243,280908
15.03868,297852
15.04493,318212
15.05120,359726
15.05745,379142
15.06370,389447
15.06997,386625
15.07622,364846
15.08247,361505
15.08873,383949
15.09498,441096
15.10123,494433
15.10750,518636
15.11375,576235
15.12000,692931
15.12627,826897
15.13252,959819
15.13877,1087813
15.14503,1185467
15.15128,1255710
15.15753,1485129
15.16380,2277495
15.17005,3630198
15.17630,4648766
15.18257,4188771
15.18882,2658902
15.19507,1370551
15.20133,789998
15.20758,553840
15.21383,422573
15.22008,317527
15.22635,258834
15.23260,237245
15.23885,260490
15.24512,302531
15.25137,355314
15.25762,402475
15.26388,414602
15.27013,385728
15.27638,338449
15.28265,294412
15.28890,270173
15.29515,261364
15.30142,278558
15.30767,315766
15.31392,388563
15.32018,494353
15.32643,582745
15.33268,565406
15.33895,442203
15.34520,354325
15.35145,318430
15.35772,326449
15.36397,345100
15.37022,345294
15.37648,325705
15.38273,301859
15.38898,288115
15.39525,278916
15.40150,268556
15.40775,260614
15.41402,260732
15.42027,287066
15.42652,346218
15.43278,411470
15.43903,437392
15.44528,465144
15.45153,496280
15.45780,532754
15.46405,549496
15.47030,511808
15.47657,446218
15.48282,351764
15.48907,302746
15.49533,301701
15.50158,335545
15.50783,440368
15.51410,740761
15.52035,1599145
15.52660,3232391
15.53287,5166105
15.53912,7364828
15.54537,1.031636E+07
15.55163,1.352708E+07
15.55788,1.600441E+07
15.56413,1.355732E+07
15.57040,7001583
15.57665,2245713
15.58290,799609
15.58917,520178
15.59542,460372
15.60167,453547
15.60793,461077
15.61418,461569
15.62043,447755
15.62670,457634
15.63295,479369
15.63920,473656
15.64547,418006
15.65172,353368
15.65797,315935
15.66422,321740
15.67048,346105
15.67673,381879
15.68298,428723
15.68925,491435
15.69550,632873
15.70175,748465
15.70802,772920
15.71427,616336
15.72052,442016
15.72678,362521
15.73303,332657
15.73928,330715
15.74555,339854
15.75180,328907
15.75805,309454
15.76432,269412
15.77057,242937
15.77682,228413
15.78308,230275
15.78933,251283
15.79558,277897
15.80185,295116
15.80810,296474
15.81435,293617
15.82062,278727
15.82687,273898
15.83312,289383
15.83938,324943
15.84563,371967
15.85188,398102
15.85815,360372
15.86440,341218
15.87065,371710
15.87692,408963
15.88317,409209
15.88942,371184
15.89567,302308
15.90193,267564
15.90818,245301
15.91443,240804
15.92070,235018
15.92695,236458
15.93320,239007
15.93947,229985
15.94572,232018
15.95197,257560
15.95823,306575
15.96448,362105
15.97073,388853
15.97700,349626
15.98325,295463
15.98950,236622
15.99577,223519
16.00202,234886
16.00827,286854
16.01453,377456
16.02078,488458
16.02703,607242
16.03330,742395
16.03955,957461
16.04580,1364771
16.05207,1724155
16.05832,1711637
16.06457,1334157
16.07083,919598
16.07708,886651
16.08333,1216202
16.08960,1557975
16.09585,1639504
16.10210,1563097
16.10835,1703559
16.11462,2748164
16.12087,4705114
16.12712,6770343
16.13338,6688103
16.13963,4494184
16.14588,2117095
16.15215,928686
16.15840,599043
16.16465,556008
16.17092,537271
16.17717,482542
16.18342,457100
16.18968,491995
16.19593,576598
16.20218,598500
16.20845,507264
16.21470,412634
16.22095,473505
16.22722,763242
16.23347,1263333
16.23972,1640514
16.24598,1541051
16.25223,998797
16.25848,561266
16.26475,382641
16.27100,320010
16.27725,295039
16.28352,291301
16.28977,320944
16.29602,417900
16.30228,609288
16.30853,793186
16.31478,821140
16.32103,644325
16.32730,466365
16.33355,374483
16.33980,369756
16.34607,436005
16.35232,510564
16.35857,532665
16.36483,456394
16.37108,359632
16.37733,286654
16.38360,249608
16.38985,233084
16.39610,234890
16.40237,241474
16.40862,252008
16.41487,267032
16.42113,271861
16.42738,322404
16.43363,489718
16.43990,842357
16.44615,1222707
16.45240,1407737
16.45867,1290638
16.46492,1040778
16.47117,877493
16.47743,724478
16.48368,583009
16.48993,476729
16.49620,419243
16.50245,401202
16.50870,448858
16.51497,539908
16.52122,636997
16.52747,677993
16.53373,657855
16.53998,595374
16.54623,525958
16.55248,478121
16.55875,443789
16.56500,406147
16.57125,381181
16.57752,376973
16.58377,380380
16.59002,379553
16.59628,378162
16.60253,386601
16.60878,404195
16.61505,443834
16.62130,474156
16.62755,505563
16.63382,520604
16.64007,562263
16.64632,582072
16.65258,580931
16.65883,529633
16.66508,479845
16.67135,442955
16.67760,443553
16.68385,455421
16.69012,455469
16.69637,444942
16.70262,410535
16.70888,376441
16.71513,350341
16.72138,343161
16.72765,350241
16.73390,380113
16.74015,432806
16.74642,570693
16.75267,815635
16.75892,1322993
16.76517,2591884
16.77143,5241074
16.77768,8537942
16.78393,1.136005E+07
16.79020,1.139799E+07
16.79645,8560358
16.80270,5671022
16.80897,4481199
16.81522,4630616
16.82147,5723290
16.82773,8195907
16.83398,1.181067E+07
16.84023,1.4607E+07
16.84650,1.561419E+07
16.85275,1.36009E+07
16.85900,9497282
16.86527,5783181
16.87152,4441241
16.87777,4992211
16.88403,6530981
16.89028,7946825
16.89653,8882216
16.90280,8326713
16.90905,6129305
16.91530,4159115
16.92157,3076740
16.92782,3129572
16.93407,3467899
16.94033,3665690
16.94658,3803306
16.95283,3952739
16.95910,4080910
16.96535,3750721
16.97160,3065868
16.97787,2144019
16.98412,1558249
16.99037,1304424
16.99662,1333494
17.00288,1818954
17.00913,3513526
17.01538,7495970
17.02165,1.338299E+07
17.02790,2.126543E+07
17.03415,2.829612E+07
17.04042,3.548875E+07
17.04667,4.092768E+07
17.05292,4.753993E+07
17.05918,5.227097E+07
17.06543,5.328502E+07
17.07168,5.122249E+07
17.07795,4.811938E+07
17.08420,4.356282E+07
17.09045,4.058468E+07
17.09672,3.866518E+07
17.10297,3.837284E+07
17.10922,3.906953E+07
17.11548,4.981402E+07
17.12173,1.850019E+07
17.12798,1.446925E+07
17.13425,1.370207E+07
17.14050,1.186708E+07
17.14675,1.027692E+07
17.15302,1.296413E+07
17.15927,2.151315E+07
17.16552,3.501976E+07
17.17178,4.520688E+07
17.17803,5.111094E+07
17.18428,5.250497E+07
17.19055,4.250291E+07
17.19680,1.706089E+07
17.20305,4705148
17.20930,3784693
17.21557,4963391
17.22182,6187515
17.22807,7880981
17.23433,1.199466E+07
17.24058,2.107113E+07
17.24683,3.439646E+07
17.25310,4.556989E+07
17.25935,5.244788E+07
17.26560,5.388387E+07
17.27187,4.965743E+07
17.27812,2.898011E+07
17.28437,1.003339E+07
17.29063,9370007
17.29688,1.409123E+07
17.30313,1.742015E+07
17.30940,1.687839E+07
17.31565,1.089115E+07
17.32190,5188688
17.32817,2254381
17.33442,1296165
17.34067,1068483
17.34693,986704
17.35318,931012
17.35943,902102
17.36570,880173
17.37195,873422
17.37820,913271
17.38447,953656
17.39072,1002928
17.39697,1102359
17.40323,1284313
17.40948,1559977
17.41573,1861566
17.42200,1886770
17.42825,1825644
17.43450,1777645
17.44075,2150115
17.44702,3363763
17.45327,5059069
17.45952,6152766
17.46578,5647681
17.47203,3899019
17.47828,2143464
17.48455,1409624
17.49080,1163377
17.49705,1079759
17.50332,1077770
17.50957,1140236
17.51582,1292596
17.52208,1323570
17.52833,1203126
17.53458,988989
17.54085,825948
17.54710,820677
17.55335,1021333
17.55962,1588375
17.56587,3171854
17.57212,6462685
17.57838,1.02992E+07
17.58463,1.318164E+07
17.59088,1.162198E+07
17.59715,7034709
17.60340,3124382
17.60965,1521637
17.61592,1263069
17.62217,1436779
17.62842,1496250
17.63468,1270252
17.64093,1009172
17.64718,785233
17.65343,681805
17.65970,633241
17.66595,603218
17.67220,595238
17.67847,589347
17.68472,626536
17.69097,669409
17.69723,696601
17.70348,704125
17.70973,677764
17.71600,621464
17.72225,563053
17.72850,554856
17.73477,586281
17.74102,655943
17.74727,723884
17.75353,727219
17.75978,733580
17.76603,819413
17.77230,1034614
17.77855,1388962
17.78480,1754798
17.79107,2387441
17.79732,3755382
17.80357,5773444
17.80983,7952175
17.81608,8854204
17.82233,7835748
17.82860,5288075
17.83485,2760496
17.84110,1667037
17.84737,1262070
17.85362,1392553
17.85987,2363122
17.86612,5328071
17.87238,1.019259E+07
17.87863,1.468539E+07
17.88488,1.532189E+07
17.89115,1.04371E+07
17.89740,4817236
17.90365,1795896
17.90992,879729
17.91617,660485
17.92242,597965
17.92868,591954
17.93493,615986
17.94118,660011
17.94745,711594
17.95370,728816
17.95995,704799
17.96622,671634
17.97247,637155
17.97872,634906
17.98498,677964
17.99123,770340
17.99748,948527
18.00375,1130394
18.01000,1244463
18.01625,1172129
18.02252,980170
18.02877,810492
18.03502,712831
18.04128,686375
18.04753,652968
18.05378,594720
18.06005,512407
18.06630,454508
18.07255,433537
18.07882,450252
18.08507,514581
18.09132,595339
18.09757,657053
18.10383,650729
18.11008,603171
18.11633,597841
18.12260,808442
18.12885,1584449
18.13510,3004092
18.14137,5065551
18.14762,6053315
18.15387,5196160
18.16013,3096881
18.16638,1493046
18.17263,770898
18.17890,561601
18.18515,481795
18.19140,453004
18.19767,433369
18.20392,458119
18.21017,538130
18.21643,631914
18.22268,685237
18.22893,638273
18.23520,568314
18.24145,491732
18.24770,449594
18.25397,436001
18.26022,458724
18.26647,518259
18.27273,612422
18.27898,767956
18.28523,1085781
18.29150,1763424
18.29775,2537560
18.30400,2909629
18.31025,2433406
18.31652,1581698
18.32277,923221
18.32902,590146
18.33528,420417
18.34153,363061
18.34778,362522
18.35405,387421
18.36030,399979
18.36655,405352
18.37282,397895
18.37907,441468
18.38532,504782
18.39158,564813
18.39783,581461
18.40408,524035
18.41035,488154
18.41660,452821
18.42285,429280
18.42912,399665
18.43537,372380
18.44162,357262
18.44788,345103
18.45413,336598
18.46038,341844
18.46665,353012
18.47290,353930
18.47915,352462
18.48542,347520
18.49167,337484
18.49792,341160
18.50418,354801
18.51043,370593
18.51668,375213
18.52293,375659
18.52920,373103
18.53545,383979
18.54170,397313
18.54797,426134
18.55422,454551
18.56047,447686
18.56673,412472
18.57298,368711
18.57923,352060
18.58550,332485
18.59175,328926
18.59800,340746
18.60427,370541
18.61052,414758
18.61677,438473
18.62303,424991
18.62928,390847
18.63553,371189
18.64180,375822
18.64805,365290
18.65430,367158
18.66057,372720
18.66682,386436
18.67307,401737
18.67933,380160
18.68558,341182
18.69183,328052
18.69810,342581
18.70435,383297
18.71060,438296
18.71687,470070
18.72312,444845
18.72937,404929
18.73563,374284
18.74188,367831
18.74813,368882
18.75438,352840
18.76065,328619
18.76690,306903
18.77315,292524
18.77942,297911
18.78567,295359
18.79192,293368
18.79818,303864
18.80443,319643
18.81068,326147
18.81695,340820
18.82320,338121
18.82945,344555
18.83572,362914
18.84197,363940
18.84822,355023
18.85448,362032
18.86073,402444
18.86698,564864
18.87325,1078080
18.87950,2468334
18.88575,5526693
18.89202,9658737
18.89827,1.2905E+07
18.90452,1.240498E+07
18.91078,7956700
18.91703,3957802
18.92328,1471544
18.92955,677720
18.93580,512393
18.94205,527489
18.94832,488572
18.95457,421863
18.96082,354527
18.96707,304164
18.97333,279968
18.97958,274954
18.98583,281232
18.99210,293384
18.99835,307017
19.00460,331302
19.01087,347647
19.01712,336162
19.02337,324984
19.02963,310518
19.03588,320763
19.04213,333266
19.04840,351354
19.05465,357634
19.06090,333956
19.06717,303094
19.07342,301376
19.07967,303747
19.08593,328801
19.09218,345576
19.09843,376965
19.10470,382851
19.11095,378502
19.11720,369760
19.12347,376830
19.12972,382101
19.13597,375384
19.14223,368163
19.14848,350829
19.15473,329724
19.16100,305318
19.16725,292959
19.17350,277894
19.17977,275661
19.18602,281919
19.19227,290659
19.19852,296453
19.20478,291550
19.21103,287704
19.21728,279707
19.22355,271005
19.22980,265989
19.23605,258146
19.24232,256373
19.24857,253058
19.25482,258663
19.26108,243699
19.26733,236551
19.27358,244759
19.27985,256811
19.28610,264809
19.29235,270647
19.29862,276990
19.30487,270581
19.31112,253630
19.31738,244053
19.32363,238075
19.32988,244463
19.33615,264113
19.34240,298864
19.34865,330276
19.35492,342543
19.36117,343437
19.36742,318178
19.37368,299192
19.37993,294041
19.38618,308489
19.39245,330430
19.39870,366211
19.40495,357688
19.41120,345858
19.41747,309917
19.42372,281677
19.42997,260897
19.43623,263539
19.44248,272923
19.44873,284760
19.45500,286687
19.46125,274216
19.46750,263524
19.47377,264130
19.48002,270615
19.48627,277603
19.49253,288116
19.49878,298845
19.50503,315692
19.51130,329681
19.51755,343402
19.52380,346370
19.53007,314225
19.53632,295004
19.54257,299926
19.54883,305033
19.55508,318431
19.56133,324292
19.56760,314737
19.57385,293438
19.58010,266674
19.58637,268008
19.59262,268666
19.59887,261889
19.60513,255182
19.61138,241252
19.61763,239687
19.62390,233800
19.63015,234588
19.63640,239260
19.64265,241404
19.64892,255014
19.65517,254629
19.66142,268577
19.66768,318021
19.67393,376592
19.68018,415667
19.68645,423923
19.69270,399689
19.69895,378147
19.70522,401236
19.71147,420836
19.71772,401232
19.72398,366951
19.73023,331213
19.73648,314017
19.74275,298213
19.74900,280208
19.75525,270716
19.76152,264171
19.76777,255640
19.77402,261426
19.78028,260037
19.78653,266415
19.79278,282628
19.79905,301754
19.80530,309578
19.81155,291347
19.81782,262895
19.82407,250725
19.83032,230009
19.83658,229239
19.84283,238783
19.84908,250572
19.85533,277528
19.86160,288381
19.86785,294914
19.87410,287467
19.88037,286607
19.88662,291089
19.89287,324671
19.89913,444209
19.90538,845366
19.91163,2117010
19.91790,4297568
19.92415,6498682
19.93040,6884841
19.93667,5177083
19.94292,2584286
19.94917,1058241
19.95543,493381
19.96168,414704
19.96793,505267
19.97420,616218
19.98045,696834
19.98670,685973
19.99297,596868
19.99922,460103
20.00547,355989
20.01173,298739
20.01798,282532
20.02423,270776
20.03050,257907
20.03675,249168
20.04300,258128
20.04927,277473
20.05552,285830
20.06177,281032
20.06803,269271
20.07428,243165
20.08053,230425
20.08678,239081
20.09305,248996
20.09930,254905
20.10555,256562
20.11182,247019
20.11807,238490
20.12432,230634
20.13058,230582
20.13683,229393
20.14308,233329
20.14935,246099
20.15560,251887
20.16185,259225
20.16812,248299
20.17437,247186
20.18062,241078
20.18688,250112
20.19313,269237
20.19938,302445
20.20565,340373
20.21190,370869
20.21815,414719
20.22442,455848
20.23067,484094
20.23692,468511
20.24318,415816
20.24943,341742
20.25568,296057
20.26195,258360
20.26820,250835
20.27445,258103
20.28072,260884
20.28697,287734
20.29322,340496
20.29947,412656
20.30573,463637
20.31198,452091
20.31823,375300
20.32450,323283
20.33075,289058
20.33700,303697
20.34327,318697
20.34952,337983
20.35577,323880
20.36203,295267
20.36828,269644
20.37453,260356
20.38080,255051
20.38705,253870
20.39330,247627
20.39957,246935
20.40582,252123
20.41207,251912
20.41833,263108
20.42458,303781
20.43083,413961
20.43710,555394
20.44335,681606
20.44960,640305
20.45587,526015
20.46212,409631
20.46837,335116
20.47463,322268
20.48088,333392
20.48713,354983
20.49340,347490
20.49965,305729
20.50590,287166
20.51215,280579
20.51842,279456
20.52467,263330
20.53092,256956
20.53718,259245
20.54343,280898
20.54968,322157
20.55595,335558
20.56220,333206
20.56845,308896
20.57472,302938
20.58097,320863
20.58722,350238
20.59348,378728
20.59973,365416
20.60598,342272
20.61225,317025
20.61850,281679
20.62475,261879
20.63102,247884
20.63727,265722
20.64352,267712
20.64978,283948
20.65603,301192
20.66228,297907
20.66855,298725
20.67480,283198
20.68105,269248
20.68732,262295
20.69357,247213
20.69982,245691
20.70608,275234
20.71233,332652
20.71858,423266
20.72485,486925
20.73110,489107
20.73735,462598
20.74360,400996
20.74987,368104
20.75612,350208
20.76237,363672
20.76863,399522
20.77488,397476
20.78113,391853
20.78740,356520
20.79365,339989
20.79990,327630
20.80617,313322
20.81242,303060
20.81867,294551
20.82493,302229
20.83118,318513
20.83743,328106
20.84370,334902
20.84995,322357
20.85620,305367
20.86247,308635
20.86872,302130
20.87497,296932
20.88123,315321
20.88748,336023
20.89373,358090
20.90000,351837
20.90625,339529
20.91250,335896
20.91877,329570
20.92502,330143
20.93127,344855
20.93753,394773
20.94378,470848
20.95003,507343
20.95628,477548
20.96255,433434
20.96880,429934
20.97505,419551
20.98132,395059
20.98757,348573
20.99382,355101
21.00008,449177
21.00633,616969
21.01258,756454
21.01885,765696
21.02510,632445
21.03135,466311
21.03762,372142
21.04387,327014
21.05012,297904
21.05638,284422
21.06263,269637
21.06888,265997
21.07515,269676
21.08140,279497
21.08765,282143
21.09392,277036
21.10017,278524
21.10642,293459
21.11268,325935
21.11893,345974
21.12518,342916
21.13145,310575
21.13770,281810
21.14395,276667
21.15022,286946
21.15647,286695
21.16272,297585
21.16897,307127
21.17523,312525
21.18148,310546
21.18773,304635
21.19400,293750
21.20025,302851
21.20650,326014
21.21277,357263
21.21902,365355
21.22527,357153
21.23153,349552
21.23778,346398
21.24403,359904
21.25030,359044
21.25655,332456
21.26280,302047
21.26907,281395
21.27532,300027
21.28157,331135
21.28783,393090
21.29408,497275
21.30033,589568
21.30660,603062
21.31285,549528
21.31910,444695
21.32537,392607
21.33162,358312
21.33787,343940
21.34413,374923
21.35038,487839
21.35663,795833
21.36290,1166495
21.36915,1347649
21.37540,1145154
21.38167,778035
21.38792,511137
21.39417,375375
21.40042,334471
21.40668,329984
21.41293,346681
21.41918,382781
21.42545,430008
21.43170,417317
21.43795,390769
21.44422,358692
21.45047,349768
21.45672,362737
21.46298,376476
21.46923,382739
21.47548,349866
21.48175,342008
21.48800,356427
21.49425,381795
21.50052,404508
21.50677,402862
21.51302,359917
21.51928,312049
21.52553,265157
21.53178,248065
21.53805,246307
21.54430,255678
21.55055,272536
21.55682,294368
21.56307,313822
21.56932,339088
21.57558,363035
21.58183,381817
21.58808,406580
21.59435,447027
21.60060,441803
21.60685,393786
21.61310,326044
21.61937,288753
21.62562,269541
21.63187,273913
21.63813,267963
21.64438,254506
21.65063,248978
21.65690,236349
21.66315,229405
21.66940,237431
21.67567,245491
21.68192,259773
21.68817,258773
21.69443,256583
21.70068,258744
21.70693,248155
21.71320,243091
21.71945,238124
21.72570,239629
21.73197,251505
21.73822,249582
21.74447,246848
21.75073,248745
21.75698,244084
21.76323,257118
21.76950,276348
21.77575,298663
21.78200,354967
21.78827,383684
21.79452,396252
21.80077,371891
21.80703,343299
21.81328,295561
21.81953,274375
21.82578,261282
21.83205,252028
21.83830,257928
21.84455,274215
21.85082,299881
21.85707,334589
21.86332,376456
21.86958,406335
21.87583,389783
21.88208,337465
21.88835,295721
21.89460,284395
21.90085,311939
21.90712,355197
21.91337,386346
21.91962,369219
21.92588,324371
21.93213,299442
21.93838,286980
21.94465,280101
21.95090,269352
21.95715,251950
21.96342,242501
21.96967,244407
21.97592,253408
21.98218,259475
21.98843,271087
21.99468,271855
22.00095,283708
22.00720,297729
22.01345,313824
22.01972,317677
22.02597,286869
22.03222,278131
22.03848,275346
22.04473,296029
22.05098,346489
22.05723,393670
22.06350,453870
22.06975,461151
22.07600,464626
22.08227,438419
22.08852,369791
22.09477,339363
22.10103,318273
22.10728,320477
22.11353,309562
22.11980,318780
22.12605,330603
22.13230,320991
22.13857,305019
22.14482,287186
22.15107,276972
22.15733,269123
22.16358,267023
22.16983,271136
22.17610,265424
22.18235,259097
22.18860,265160
22.19487,250789
22.20112,252379
22.20737,249343
22.21363,246263
22.21988,257194
22.22613,282280
22.23240,309614
22.23865,355321
22.24490,377299
22.25117,386687
22.25742,390379
22.26367,400275
22.26992,377770
22.27618,351583
22.28243,352243
22.28868,362116
22.29495,366602
22.30120,366560
22.30745,341501
22.31372,304111
22.31997,291732
22.32622,289805
22.33248,286942
22.33873,307279
22.34498,404779
22.35125,699293
22.35750,1268245
22.36375,1704898
22.37002,1914876
22.37627,1603704
22.38252,961294
22.38878,588700
22.39503,424512
22.40128,344726
22.40755,302889
22.41380,288116
22.42005,307566
22.42632,312069
22.43257,339519
22.43882,363930
22.44508,392460
22.45133,456906
22.45758,556165
22.46385,620488
22.47010,601743
22.47635,533668
22.48262,436421
22.48887,359576
22.49512,324743
22.50137,311664
22.50763,297421
22.51388,282116
22.52013,291494
22.52640,334836
22.53265,463643
22.53890,702739
22.54517,960260
22.55142,1023339
22.55767,886663
22.56393,667328
22.57018,476195
22.57643,386709
22.58270,364252
22.58895,347090
22.59520,342915
22.60147,325072
22.60772,316860
22.61397,309169
22.62023,300859
22.62648,321602
22.63273,378862
22.63900,475084
22.64525,622142
22.65150,766396
22.65777,834903
22.66402,765809
22.67027,610612
22.67653,510932
22.68278,451702
22.68903,387306
22.69530,342230
22.70155,309731
22.70780,289242
22.71405,278137
22.72032,273369
22.72657,269585
22.73282,279217
22.73908,285900
22.74533,301312
22.75158,301762
22.75785,306732
22.76410,330574
22.77035,389145
22.77662,559197
22.78287,1305728
22.78912,3482501
22.79538,8286707
22.80163,1.542077E+07
22.80788,2.244776E+07
22.81415,2.477291E+07
22.82040,2.146184E+07
22.82665,1.071839E+07
22.83292,3335782
22.83917,1096039
22.84542,611368
22.85168,522911
22.85793,509197
22.86418,480621
22.87045,459165
22.87670,459712
22.88295,469910
22.88922,470430
22.89547,468030
22.90172,444392
22.90798,396418
22.91423,362878
22.92048,338030
22.92675,322719
22.93300,316600
22.93925,319549
22.94550,325965
22.95177,333650
22.95802,358430
22.96427,400015
22.97053,458051
22.97678,531238
22.98303,598220
22.98930,582856
22.99555,490645
23.00180,407516
23.00807,329721
23.01432,302397
23.02057,286417
23.02683,282298
23.03308,283157
23.03933,287851
23.04560,284459
23.05185,285337
23.05810,308865
23.06437,350826
23.07062,411260
23.07687,455853
23.08313,458827
23.08938,430368
23.09563,394022
23.10190,360145
23.10815,342724
23.11440,317719
23.12067,292591
23.12692,275904
23.13317,272022
23.13943,259558
23.14568,259544
23.15193,257769
23.15818,257274
23.16445,257039
23.17070,253036
23.17695,259063
23.18322,264475
23.18947,266796
23.19572,274762
23.20198,281846
23.20823,276777
23.21448,272810
23.22075,272689
23.22700,262356
23.23325,256313
23.23952,259697
23.24577,274832
23.25202,277624
23.25828,280441
23.26453,275879
23.27078,266886
23.27705,267436
23.28330,277540
23.28955,310663
23.29582,367885
23.30207,465574
23.30832,645750
23.31458,742079
23.32083,764932
23.32708,600113
23.33335,451595
23.33960,364372
23.34585,320940
23.35212,291271
23.35837,291770
23.36462,275862
23.37088,276698
23.37713,279632
23.38338,281567
23.38963,285918
23.39590,283689
23.40215,279520
23.40840,272438
23.41467,275332
23.42092,273145
23.42717,274299
23.43343,288595
23.43968,310147
23.44593,331075
23.45220,365940
23.45845,362179
23.46470,363586
23.47097,403204
23.47722,473190
23.48347,531833
23.48973,556146
23.49598,548876
23.50223,560328
23.50850,625127
23.51475,739633
23.52100,807923
23.52727,755318
23.53352,610129
23.53977,472631
23.54603,438315
23.55228,630280
23.55853,1247332
23.56480,2928980
23.57105,5526766
23.57730,9063865
23.58357,9723960
23.58982,8570872
23.59607,5524161
23.60232,2820519
23.60858,1318318
23.61483,754352
23.62108,538781
23.62735,454026
23.63360,409818
23.63985,401581
23.64612,385241
23.65237,362650
23.65862,359818
23.66488,365419
23.67113,408045
23.67738,467172
23.68365,527790
23.68990,562042
23.69615,582841
23.70242,597150
23.70867,594973
23.71492,586367
23.72118,546198
23.72743,516957
23.73368,487569
23.73995,424444
23.74620,390075
23.75245,378055
23.75872,360283
23.76497,356041
23.77122,353909
23.77748,349106
23.78373,357344
23.78998,354732
23.79625,359101
23.80250,365074
23.80875,371184
23.81500,394532
23.82127,409776
23.82752,418179
23.83377,392047
23.84003,369096
23.84628,364633
23.85253,377341
23.85880,403121
23.86505,454698
23.87130,513074
23.87757,529667
23.88382,499269
23.89007,434542
23.89633,395830
23.90258,373219
23.90883,367318
23.91510,375625
23.92135,386092
23.92760,387341
23.93387,390026
23.94012,415321
23.94637,548683
23.95263,1029620
23.95888,2405530
23.96513,5383279
23.97140,8711730
23.97765,1.385296E+07
23.98390,2.051246E+07
23.99017,2.896534E+07
23.99642,3.455192E+07
24.00267,3.508656E+07
24.00893,2.870294E+07
24.01518,1.543417E+07
24.02143,6673031
24.02768,2784950
24.03395,1547337
24.04020,1150456
24.04645,977541
24.05272,851461
24.05897,815444
24.06522,914906
24.07148,1058756
24.07773,1135007
24.08398,1126663
24.09025,1251285
24.09650,1827051
24.10275,3383179
24.10902,5683568
24.11527,8139640
24.12152,8278800
24.12778,6567604
24.13403,4021702
24.14028,2124849
24.14655,1128810
24.15280,776985
24.15905,675207
24.16532,640996
24.17157,696452
24.17782,796338
24.18408,1018715
24.19033,1482876
24.19658,2697110
24.20285,5588828
24.20910,1.063574E+07
24.21535,1.832115E+07
24.22162,2.919822E+07
24.22787,3.721048E+07
24.23412,4.343567E+07
24.24038,4.609969E+07
24.24663,4.679347E+07
24.25288,4.616577E+07
24.25913,4.507291E+07
24.26540,4.384286E+07
24.27165,4.345006E+07
24.27790,4.325279E+07
24.28417,1.614144E+07
24.29042,4401588
24.29667,2978620
24.30293,2523097
24.30918,2241989
24.31543,2084803
24.32170,2027746
24.32795,2023949
24.33420,2009860
24.34047,2045686
24.34672,2116094
24.35297,2113774
24.35923,2224017
24.36548,2482960
24.37173,2797324
24.37800,3203337
24.38425,3130188
24.39050,2908351
24.39677,2522178
24.40302,2006373
24.40927,1734426
24.41553,1647224
24.42178,1661959
24.42803,1935187
24.43430,2227439
24.44055,2459821
24.44680,2435566
24.45307,2205221
24.45932,1751478
24.46557,1367160
24.47182,1178506
24.47808,1079975
24.48433,1039301
24.49058,1040525
24.49685,1035953
24.50310,1019119
24.50935,1016264
24.51562,972777
24.52187,923149
24.52812,897876
24.53438,860641
24.54063,870366
24.54688,836134
24.55315,833966
24.55940,855062
24.56565,930773
24.57192,989411
24.57817,978194
24.58442,926736
24.59068,820903
24.59693,720090
24.60318,646035
24.60945,589082
24.61570,546922
24.62195,538982
24.62822,534759
24.63447,517047
24.64072,506162
24.64698,486914
24.65323,474910
24.65948,456652
24.66575,453294
24.67200,468015
24.67825,464760
24.68450,479256
24.69077,482608
24.69702,492383
24.70327,494676
24.70953,511221
24.71578,510342
24.72203,466855
24.72830,447443
24.73455,431004
24.74080,422987
24.74707,411678
24.75332,388784
24.75957,383727
24.76583,373666
24.77208,376930
24.77833,378796
24.78460,366684
24.79085,348373
24.79710,336171
24.80337,331179
24.80962,332776
24.81587,335348
24.82213,322460
24.82838,317080
24.83463,305215
24.84090,303685
24.84715,300965
24.85340,298616
24.85967,306343
24.86592,330396
24.87217,357102
24.87843,411718
24.88468,500703
24.89093,562632
24.89720,573575
24.90345,490511
24.90970,416546
24.91595,380126
24.92222,376483
24.92847,374926
24.93472,394919
24.94098,453751
24.94723,590578
24.95348,676147
24.95975,645723
24.96600,553943
24.97225,449843
24.97852,393541
24.98477,356327
24.99102,336064
24.99728,334784
25.00353,326304
25.00978,334094
25.01605,360802
25.02230,391010
25.02855,414384
25.03482,416627
25.04107,426134
25.04732,403573
25.05358,396194
25.05983,385821
25.06608,345539
25.07235,307833
25.07860,290205
25.08485,280953
25.09112,279150
25.09737,284480
25.10362,279660
25.10988,288180
25.11613,297847
25.12238,303734
25.12863,296206
25.13490,299508
25.14115,282818
25.14740,261699
25.15367,253560
25.15992,250052
25.16617,256042
25.17243,262988
25.17868,291153
25.18493,312394
25.19120,312290
25.19745,307053
25.20370,282383
25.20997,251525
25.21622,243876
25.22247,243510
25.22873,241241
25.23498,245635
25.24123,253765
25.24750,276602
25.25375,302839
25.26000,318263
25.26627,315794
25.27252,305652
25.27877,311059
25.28503,334547
25.29128,395350
25.29753,422695
25.30380,404841
25.31005,347127
25.31630,296769
25.32257,260699
25.32882,264800
25.33507,254157
25.34133,250822
25.34758,239720
25.35383,236986
25.36008,240433
25.36635,232758
25.37260,246636
25.37885,256824
25.38512,286104
25.39137,381032
25.39762,591447
25.40388,891228
25.41013,1069020
25.41638,1015221
25.42265,784758
25.42890,564675
25.43515,448739
25.44142,384032
25.44767,346088
25.45392,332591
25.46018,325687
25.46643,315759
25.47268,305518
25.47895,294747
25.48520,311546
25.49145,348708
25.49772,384050
25.50397,390745
25.51022,384662
25.51648,375172
25.52273,400187
25.52898,485337
25.53525,691963
25.54150,860288
25.54775,846090
25.55402,699032
25.56027,502380
25.56652,356783
25.57277,275400
25.57903,252859
25.58528,245612
25.59153,248033
25.59780,252427
25.60405,264927
25.61030,266589
25.61657,261611
25.62282,247516
25.62907,246277
25.63533,236653
25.64158,233427
25.64783,220583
25.65410,223615
25.66035,217309
25.66660,219600
25.67287,221140
25.67912,226841
25.68537,222730
25.69163,220897
25.69788,223178
25.70413,218044
25.71040,212518
25.71665,210228
25.72290,212018
25.72917,207348
25.73542,214680
25.74167,216620
25.74793,222552
25.75418,228410
25.76043,222357
25.76670,227602
25.77295,226104
25.77920,235547
25.78545,235138
25.79172,237229
25.79797,221994
25.80422,221328
25.81048,212222
25.81673,209145
25.82298,204516
25.82925,200823
25.83550,201211
25.84175,204492
25.84802,205679
25.85427,209677
25.86052,216456
25.86678,219930
25.87303,218142
25.87928,218128
25.88555,216070
25.89180,217966
25.89805,222025
25.90432,214471
25.91057,210313
25.91682,211913
25.92308,206737
25.92933,206882
25.93558,208118
25.94185,201646
25.94810,205439
25.95435,199082
25.96062,196986
25.96687,206191
25.97312,201602
25.97938,214405
25.98563,214045
25.99188,209112
25.99815,211636
26.00440,211437
26.01065,209667
26.01690,215982
26.02317,213219
26.02942,213067
26.03567,217733
26.04193,220490
26.04818,224647
26.05443,221601
26.06070,229692
26.06695,242369
26.07320,256507
26.07947,272631
26.08572,276803
26.09197,269090
26.09823,255807
26.10448,245573
26.11073,233409
26.11700,220262
26.12325,215161
26.12950,213836
26.13577,202391
26.14202,203899
26.14827,204426
26.15453,203100
26.16078,202299
26.16703,207807
26.17330,211636
26.17955,208668
26.18580,209640
26.19207,200214
26.19832,195397
26.20457,200290
26.21083,201706
26.21708,198855
26.22333,203102
26.22958,199104
26.23585,196693
26.24210,200508
26.24835,204735
26.25462,203641
26.26087,208362
26.26712,207940
26.27338,202675
26.27963,208958
26.28588,208693
26.29215,212475
26.29840,214041
26.30465,212828
26.31092,205688
26.31717,207407
26.32342,206260
26.32968,201261
26.33593,208689
26.34218,208561
26.34845,220904
26.35470,238183
26.36095,297564
26.36722,400676
26.37347,572886
26.37972,745686
26.38598,741740
26.39223,561765
26.39848,416884
26.40475,304028
26.41100,263296
26.41725,250254
26.42352,241885
26.42977,243116
26.43602,236188
26.44228,231556
26.44853,228016
26.45478,232257
26.46103,226054
26.46730,232570
26.47355,231089
26.47980,228516
26.48607,236453
26.49232,235887
26.49857,235078
26.50483,230321
26.51108,229598
26.51733,241662
26.52360,267352
26.52985,284205
26.53610,286397
26.54237,275617
26.54862,261564
26.55487,243096
26.56113,230028
26.56738,231942
26.57363,220281
26.57990,220171
26.58615,221479
26.59240,229377
26.59867,237058
26.60492,249060
26.61117,266687
26.61743,266948
26.62368,257013
26.62993,252374
26.63620,245202
26.64245,264439
26.64870,349199
26.65497,539560
26.66122,843357
26.66747,1215559
26.67372,1299606
26.67998,1130372
26.68623,861147
26.69248,664583
26.69875,582518
26.70500,529408
26.71125,457746
26.71752,384220
26.72377,320705
26.73002,294143
26.73628,286316
26.74253,291212
26.74878,343141
26.75505,444894
26.76130,590621
26.76755,712093
26.77382,687007
26.78007,579930
26.78632,485195
26.79258,467836
26.79883,464426
26.80508,452849
26.81135,431738
26.81760,486904
26.82385,683768
26.83012,948169
26.83637,1170298
26.84262,1210555
26.84888,979085
26.85513,681336
26.86138,475191
26.86765,390216
26.87390,395602
26.88015,479563
26.88642,593133
26.89267,763767
26.89892,1240897
26.90517,2568038
26.91143,5718780
26.91768,1.063866E+07
26.92393,1.776965E+07
26.93020,2.509254E+07
26.93645,3.362661E+07
26.94270,3.540003E+07
26.94897,2.75662E+07
26.95522,1.304843E+07
26.96147,5186825
26.96773,2466167
26.97398,1509321
26.98023,1007939
26.98650,687814
26.99275,554999
26.99900,532187
27.00527,663497
27.01152,1011528
27.01777,1508218
27.02403,1913671
27.03028,1838776
27.03653,1379381
27.04280,916209
27.04905,641401
27.05530,540486
27.06157,514204
27.06782,479869
27.07407,449175
27.08033,407750
27.08658,373308
27.09283,352324
27.09910,340053
27.10535,331825
27.11160,343507
27.11785,383539
27.12412,471256
27.13037,591815
27.13662,687668
27.14288,672054
27.14913,599529
27.15538,487088
27.16165,396526
27.16790,370534
27.17415,357110
27.18042,357946
27.18667,344930
27.19292,342509
27.19918,342200
27.20543,344953
27.21168,347257
27.21795,345115
27.22420,334131
27.23045,327728
27.23672,329525
27.24297,347991
27.24922,351163
27.25548,357670
27.26173,342458
27.26798,329079
27.27425,322476
27.28050,310083
27.28675,308874
27.29302,308023
27.29927,315600
27.30552,312008
27.31178,308218
27.31803,302620
27.32428,309644
27.33053,299420
27.33680,295890
27.34305,300215
27.34930,321808
27.35557,326018
27.36182,320701
27.36807,309755
27.37433,302963
27.38058,308119
27.38683,310663
27.39310,330382
27.39935,369839
27.40560,408912
27.41187,431009
27.41812,405901
27.42437,371944
27.43063,338851
27.43688,315934
27.44313,312956
27.44940,291635
27.45565,276633
27.46190,284669
27.46817,282037
27.47442,279927
27.48067,279757
27.48693,289310
27.49318,282654
27.49943,281924
27.50570,276110
27.51195,270050
27.51820,268819
27.52447,280329
27.53072,277920
27.53697,280431
27.54323,285779
27.54948,279585
27.55573,276391
27.56198,264381
27.56825,261241
27.57450,270744
27.58075,270611
27.58702,267179
27.59327,274150
27.59952,278465
27.60578,280805
27.61203,285473
27.61828,289892
27.62455,281337
27.63080,285864
27.63705,284593
27.64332,276674
27.64957,276831
27.65582,282675
27.66208,273715
27.66833,278139
27.67458,282057
27.68085,286930
27.68710,283003
27.69335,284805
27.69962,288269
27.70587,291096
27.71212,302105
27.71838,315760
27.72463,318504
27.73088,314914
27.73715,330472
27.74340,321479
27.74965,319011
27.75592,327752
27.76217,332439
27.76842,314302
27.77467,304237
27.78093,301929
27.78718,287201
27.79343,282649
27.79970,286295
27.80595,280952
27.81220,286983
27.81847,278136
27.82472,281263
27.83097,305781
27.83723,331414
27.84348,421063
27.84973,555851
27.85600,843513
27.86225,1128783
27.86850,1236968
27.87477,1078807
27.88102,850932
27.88727,655560
27.89353,520803
27.89978,437755
27.90603,405691
27.91230,379519
27.91855,355808
27.92480,347961
27.93107,335118
27.93732,344084
27.94357,327216
27.94983,330513
27.95608,328349
27.96233,320629
27.96860,328811
27.97485,339044
27.98110,345898
27.98735,340447
27.99362,351263
27.99987,343756
28.00612,327867
28.01238,317270
28.01863,320489
28.02488,306982
28.03115,310762
28.03740,310298
28.04365,300038
28.04992,296126
28.05617,301416
28.06242,298756
28.06868,305137
28.07493,296679
28.08118,302796
28.08745,300151
28.09370,297209
28.09995,305774
28.10622,313266
28.11247,304981
28.11872,312768
28.12498,317931
28.13123,314497
28.13748,306975
28.14375,304386
28.15000,301520
28.15625,313669
28.16252,312859
28.16877,307846
28.17502,303285
28.18128,308988
28.18753,312321
28.19378,319395
28.20005,310917
28.20630,309446
28.21255,315313
28.21880,307806
28.22507,327743
28.23132,314656
28.23757,312237
28.24383,325207
28.25008,312408
28.25633,318510
28.26260,322223
28.26885,335054
28.27510,341455
28.28137,350296
28.28762,343727
28.29387,352265
28.30013,350452
28.30638,362081
28.31263,382928
28.31890,390267
28.32515,409606
28.33140,404774
28.33767,401275
28.34392,421506
28.35017,430260
28.35643,433402
28.36268,444230
28.36893,449904
28.37520,434611
28.38145,433824
28.38770,437680
28.39397,433827
28.40022,415293
28.40647,409833
28.41273,402748
28.41898,402305
28.42523,397968
28.43148,384146
28.43775,367427
28.44400,366273
28.45025,362174
28.45652,364363
28.46277,351617
28.46902,338204
28.47528,335288
28.48153,336185
28.48778,338628
28.49405,325161
28.50030,330489
28.50655,330911
28.51282,316859
28.51907,315652
28.52532,310895
28.53158,313277
28.53783,310361
28.54408,318875
28.55035,312874
28.55660,312255
28.56285,311969
28.56912,313790
28.57537,302848
28.58162,299403
28.58788,310109
28.59413,311598
28.60038,300020
28.60665,309810
28.61290,299830
28.61915,297369
28.62542,306762
28.63167,309392
28.63792,308005
28.64418,301636
28.65043,296842
28.65668,298075
28.66293,294144
28.66920,305921
28.67545,292690
28.68170,298820
28.68797,304825
28.69422,297919
28.70047,293273
28.70673,292971
28.71298,291173
28.71923,291989
28.72550,295909
28.73175,296837
28.73800,303525
28.74427,296774
28.75052,288859
28.75677,286946
28.76303,292246
28.76928,288231
28.77553,277920
28.78180,286583
28.78805,276205
28.79430,276199
28.80057,288230
28.80682,289003
28.81307,302877
28.81933,309872
28.82558,314164
28.83183,308910
28.83810,314114
28.84435,304947
28.85060,301458
28.85687,306244
28.86312,291851
28.86937,303627
28.87562,293051
28.88188,290015
28.88813,278596
28.89438,292421
28.90065,290944
28.90690,290984
28.91315,278438
28.91942,286618
28.92567,286740
28.93192,283949
28.93818,285035
28.94443,272877
28.95068,271858
28.95695,269705
28.96320,291978
28.96945,286470
28.97572,285449
28.98197,272125
28.98822,273021
28.99448,275832
29.00073,269479
29.00698,280378
29.01325,270630
29.01950,277042
29.02575,276815
29.03202,264579
29.03827,272725
29.04452,263577
29.05078,266520
29.05703,265437
29.06328,275656
29.06955,271207
29.07580,254929
29.08205,256614
29.08832,266521
29.09457,265107
29.10082,256976
29.10707,261222
29.11333,268513
29.11958,264900
29.12583,257173
29.13210,257063
29.13835,261256
29.14460,261863
29.15087,266385
29.15712,269215
29.16337,260459
29.16963,258441
29.17588,255943
29.18213,264417
29.18840,263007
29.19465,258997
29.20090,268492
29.20717,284191
29.21342,316620
29.21967,384150
29.22593,458003
29.23218,579077
29.23843,640117
29.24470,645593
29.25095,616004
29.25720,561066
29.26347,466884
29.26972,410292
29.27597,376160
29.28223,343434
29.28848,320853
29.29473,300274
29.30100,291982
29.30725,301910
29.31350,288477
29.31975,295354
29.32602,276135
29.33227,284327
29.33852,264660
29.34478,265297
29.35103,272793
29.35728,268192
29.36355,264951
29.36980,271072
29.37605,266972
29.38232,261316
29.38857,263155
29.39482,265791
29.40108,263967
29.40733,259592
29.41358,268289
29.41985,254827
29.42610,255166
29.43235,252113
29.43862,257967
29.44487,267466
29.45112,263730
29.45738,257386
29.46363,270343
29.46988,249299
29.47615,255858
29.48240,257324
29.48865,264323
29.49492,267983
29.50117,264462
29.50742,266109
29.51368,267836
29.51993,257563
29.52618,252695
29.53245,242411
29.53870,254938
29.54495,243868
29.55120,252728
29.55747,250779
29.56372,252889
29.56997,250901
29.57623,249261
29.58248,243987
29.58873,254208
29.59500,249142
29.60125,258738
29.60750,259732
29.61377,253787
29.62002,253607
29.62627,255753
29.63253,259458
29.63878,252508
29.64503,246577
29.65130,256862
29.65755,259557
29.66380,243579
29.67007,246958
29.67632,255263
29.68257,245300
29.68883,245975
29.69508,254021
29.70133,239397
29.70760,249592
29.71385,240227
29.72010,238520
29.72637,248988
29.73262,241386
29.73887,237603
29.74513,235471
29.75138,241482
29.75763,244775
29.76388,245143
29.77015,242754
29.77640,246003
29.78265,245798
29.78892,245304
29.79517,237708
29.80142,242666
29.80768,236439
29.81393,237997
29.82018,254981
29.82645,235209
29.83270,243552
29.83895,235776
29.84522,247514
29.85147,246414
29.85772,231692
29.86398,233236
29.87023,233498
29.87648,241357
29.88275,238557
29.88900,246721
29.89525,252505
29.90152,241307
29.90777,236461
29.91402,234927
29.92028,234683
29.92653,231705
29.93278,234348
29.93905,231136
29.94530,232388
29.95155,241723
29.95782,235742
29.96407,234764
29.97032,236577
29.97657,231879
29.98283,228503
29.98908,237945
29.99533,230314
30.00160,237704
30.00785,233108
30.01410,237482
30.02037,228373
30.02662,238074
30.03287,229949
30.03913,231478
30.04538,236736
30.05163,231755
30.05790,231490
30.06415,233302
30.07040,230828
30.07667,227799
30.08292,230570
30.08917,245579
30.09543,234415
30.10168,242314
30.10793,240517
30.11420,241171
30.12045,231780
30.12670,238805
30.13297,235869
30.13922,245827
30.14547,238163
30.15173,234051
30.15798,237767
30.16423,235282
30.17050,233056
30.17675,237577
30.18300,236411
30.18927,228396
30.19552,236986
30.20177,237889
30.20802,231883
30.21428,233187
30.22053,233632
30.22678,231093
30.23305,237498
30.23930,233592
30.24555,247499
30.25182,237134
30.25807,239240
30.26432,247270
30.27058,227627
30.27683,231968
30.28308,225578
30.28935,230127
30.29560,224793
30.30185,237843
30.30812,234058
30.31437,250552
30.32062,253043
30.32688,243241
30.33313,234980
30.33938,227131
30.34565,232459
30.35190,233808
30.35815,237692
30.36442,232325
30.37067,230213
30.37692,239142
30.38318,229145
30.38943,228563
30.39568,243752
30.40195,233514
30.40820,220829
30.41445,222492
30.42070,238165
30.42697,227307
30.43322,222674
30.43947,221932
30.44573,226393
30.45198,235488
30.45823,233710
30.46450,220435
30.47075,226891
30.47700,234619
30.48327,226033
30.48952,229886
30.49577,224431
30.50203,237317
30.50828,221990
30.51453,229527
30.52080,230392
30.52705,231174
30.53330,232645
30.53957,230450
30.54582,229577
30.55207,238650
30.55833,222700
30.56458,226111
30.57083,220385
30.57710,228218
30.58335,234281
30.58960,231610
30.59587,226111
30.60212,226941
30.60837,221211
30.61463,225949
30.62088,221427
30.62713,225340
30.63338,223460
30.63965,224476
30.64590,223326
30.65215,218246
30.65842,233192
30.66467,232898
30.67092,239108
30.67718,246992
30.68343,240417
30.68968,259254
30.69595,258598
30.70220,256070
30.70845,247344
30.71472,248317
30.72097,234835
30.72722,228973
30.73348,226011
30.73973,225833
30.74598,227059
30.75225,222755
30.75850,232789
30.76475,224292
30.77102,227472
30.77727,220738
30.78352,215730
30.78978,216315
30.79603,225329
30.80228,224316
30.80855,218869
30.81480,220585
30.82105,220922
30.82732,218963
30.83357,225400
30.83982,222963
30.84608,233958
30.85233,233176
30.85858,222348
30.86483,216879
30.87110,221924
30.87735,225638
30.88360,222958
30.88987,220769
30.89612,221240
30.90237,223149
30.90863,218500
30.91488,220906
30.92113,229164
30.92740,224427
30.93365,227144
30.93990,225458
30.94617,217951
30.95242,226980
30.95867,231953
30.96493,240421
30.97118,262948
30.97743,273667
30.98370,295235
30.98995,321430
30.99620,345392
31.00247,350099
31.00872,342557
31.01497,353320
31.02123,317447
31.02748,301519
31.03373,287723
31.04000,267286
31.04625,261572
31.05250,257672
31.05877,243461
31.06502,252681
31.07127,246847
31.07752,241959
31.08378,243596
31.09003,241296
31.09628,240171
31.10255,227540
31.10880,233088
31.11505,235585
31.12132,227252
31.12757,227674
31.13382,229250
31.14008,220019
31.14633,226344
31.15258,221781
31.15885,218327
31.16510,217889
31.17135,219377
31.17762,215761
31.18387,223820
31.19012,227048
31.19638,220622
31.20263,223040
31.20888,212116
31.21515,216428
31.22140,227793
31.22765,232508
31.23392,226627
31.24017,234843
31.24642,225056
31.25268,216891
31.25893,221621
31.26518,217794
31.27145,217250
31.27770,223402
31.28395,222605
31.29022,221986
31.29647,225663
31.30272,215720
31.30897,220265
31.31523,214589
31.32148,219008
31.32773,219148
31.33400,222677
31.34025,229641
31.34650,223458
31.35277,219220
31.35902,221579
31.36527,221768
31.37153,236191
31.37778,225915
31.38403,217611
31.39030,212798
31.39655,232866
31.40280,213029
31.40907,221667
31.41532,217771
31.42157,220740
31.42783,220043
31.43408,220560
31.44033,226763
31.44660,233092
31.45285,209798
31.45910,231608
31.46537,213692
31.47162,219238
31.47787,225220
31.48413,211413
31.49038,216920
31.49663,214508
31.50290,214360
31.50915,211341
31.51540,206837
31.52165,214589
31.52792,218433
31.53417,201808
31.54042,236683
31.54668,229221
31.55293,226117
31.55918,213190
31.56545,207109
31.57170,220733
31.57795,211780
31.58422,203552
31.59047,207115
31.59672,220831
31.60298,211962
31.60923,218092
31.61548,199997
31.62175,203602
31.62800,209972
31.63425,204274
31.64052,203334
31.64677,199168
31.65302,201958
31.65928,207165
31.66553,198438
31.67178,198532
31.67805,201293
31.68430,202951
31.69055,204145
31.69682,202392
31.70307,201309
31.70932,190945
31.71558,200363
31.72183,194406
31.72808,198880
31.73435,201909
31.74060,204423
31.74685,204010
31.75310,212464
31.75937,210123
31.76562,208274
31.77187,203400
31.77813,206220
31.78438,194855
31.79063,195601
31.79690,195969
31.80315,209229
31.80940,191999
31.81567,205141
31.82192,198010
31.82817,197271
31.83443,194651
31.84068,196464
31.84693,195686
31.85320,228152
31.85945,223873
31.86570,230005
31.87197,224965
31.87822,209728
31.88447,212575
31.89073,215856
31.89698,217557
31.90323,210817
31.90950,218719
31.91575,224952
31.92200,222308
31.92827,211161
31.93452,198694
31.94077,208799
31.94703,208755
31.95328,205744
31.95953,206392
31.96578,202677
31.97205,195898
31.97830,197118
31.98455,195930
31.99082,200338
31.99707,204782
32.00332,198257
32.00958,198506
32.01583,204253
32.02208,200434
32.02835,198050
32.03460,201407
32.04085,203315
32.04712,201040
32.05337,199214
32.05962,198239
32.06588,196672
32.07213,194505
32.07838,199235
32.08465,204295
32.09090,196519
32.09715,195185
32.10342,199507
32.10967,195794
32.11592,210700
32.12218,191983
32.12843,194906
32.13468,196490
32.14095,199886
32.14720,188494
32.15345,210729
32.15972,192988
32.16597,199966
32.17222,203592
32.17848,200454
32.18473,195518
32.19098,192375
32.19723,196567
32.20350,207580
32.20975,201631
32.21600,192975
32.22227,189514
32.22852,205550
32.23477,190922
32.24103,197428
32.24728,196443
32.25353,186501
32.25980,216681
32.26605,205417
32.27230,191948
32.27857,196476
32.28482,201091
32.29107,195689
32.29733,211898
32.30358,199326
32.30983,194151
32.31610,193090
32.32235,192090
32.32860,185108
32.33487,199108
32.34112,186512
32.34737,190850
32.35363,185053
32.35988,188920
32.36613,181101
32.37240,198975
32.37865,182769
32.38490,182134
32.39117,181740
32.39742,195086
32.40367,182960
32.40992,187340
32.41618,186702
32.42243,177668
32.42868,173986
32.43495,175617
32.44120,174593
32.44745,176670
32.45372,176095
32.45997,180141
32.46622,181945
32.47248,173597
32.47873,180393
32.48498,173298
32.49125,181299
32.49750,175268
32.50375,174426
32.51002,179219
32.51627,178546
32.52252,183281
32.52878,182796
32.53503,178155
32.54128,181636
32.54755,175152
32.55380,177725
32.56005,171195
32.56632,173635
32.57257,168719
32.57882,180991
32.58508,172873
32.59133,170430
32.59758,174514
32.60385,171194
32.61010,169007
32.61635,169549
32.62260,171668
32.62887,179506
32.63512,176105
32.64137,171613
32.64763,179473
32.65388,172990
32.66013,176741
32.66640,176227
32.67265,172090
32.67890,170717
32.68517,178673
32.69142,174531
32.69767,178597
32.70393,179085
32.71018,169226
32.71643,169700
32.72270,176669
32.72895,175966
32.73520,177260
32.74147,174590
32.74772,174556
32.75397,169417
32.76023,173783
32.76648,173237
32.77273,170013
32.77900,172393
32.78525,168253
32.79150,167667
32.79777,173445
32.80402,170038
32.81027,166140
32.81653,173601
32.82278,171870
32.82903,174114
32.83530,170100
32.84155,169622
32.84780,170615
32.85405,169401
32.86032,168444
32.86657,177288
32.87282,170360
32.87908,176594
32.88533,167966
32.89158,167279
32.89785,174003
32.90410,171919
32.91035,171730
32.91662,169032
32.92287,166601
32.92912,173621
32.93538,172020
32.94163,175626
32.94788,171555
32.95415,171183
32.96040,165985
32.96665,168462
32.97292,170006
32.97917,170176
32.98542,166255
32.99168,166944
32.99793,169566
33.00418,172557
33.01045,172753
33.01670,168095
33.02295,166246
33.02922,168686
33.03547,164518
33.04172,172164
33.04798,170599
33.05423,168817
33.06048,166275
33.06673,171414
33.07300,166660
33.07925,167537
33.08550,171855
33.09177,171736
33.09802,164448
33.10427,175979
33.11053,169536
33.11678,174585
33.12303,175408
33.12930,174812
33.13555,181050
33.14180,175807
33.14807,178020
33.15432,186956
33.16057,188271
33.16683,181131
33.17308,194982
33.17933,184909
33.18560,187087
33.19185,180180
33.19810,177429
33.20437,183057
33.21062,180573
33.21687,172208
33.22313,171312
33.22938,176334
33.23563,176390
33.24190,164653
33.24815,170984
33.25440,168069
33.26067,172424
33.26692,167541
33.27317,162014
33.27942,170806
33.28568,170635
33.29193,166410
33.29818,166252
33.30445,168280
33.31070,169793
33.31695,170848
33.32322,176217
33.32947,174989
33.33572,177167
33.34198,185932
33.34823,186644
33.35448,186156
33.36075,188157
33.36700,190333
33.37325,187949
33.37952,192152
33.38577,192427
33.39202,185420
33.39828,180383
33.40453,175824
33.41078,176871
33.41705,173070
33.42330,174118
33.42955,173637
33.43582,169148
33.44207,168713
33.44832,165128
33.45458,168327
33.46083,165733
33.46708,165025
33.47335,167464
33.47960,166382
33.48585,165360
33.49212,167904
33.49837,162234
33.50462,164734
33.51087,164595
33.51713,170258
33.52338,161778
33.52963,165751
33.53590,163187
33.54215,170476
33.54840,167982
33.55467,165368
33.56092,165542
33.56717,165552
33.57343,164447
33.57968,161627
33.58593,168090
33.59220,168160
33.59845,164542
33.60470,163315
33.61097,161188
33.61722,169423
33.62347,161562
33.62973,161385
33.63598,162249
33.64223,171263
33.64850,161187
33.65475,168147
33.66100,162437
33.66727,162612
33.67352,168391
33.67977,166763
33.68603,164178
33.69228,158821
33.69853,165997
33.70480,164653
33.71105,167322
33.71730,162455
33.72355,167248
33.72982,163566
33.73607,157654
33.74232,163755
33.74858,160899
33.75483,167123
33.76108,162887
33.76735,164436
33.77360,163049
33.77985,162533
33.78612,163517
33.79237,167158
33.79862,169054
33.80488,160411
33.81113,160573
33.81738,160662
33.82365,160935
33.82990,162647
33.83615,159882
33.84242,162563
33.84867,161777
33.85492,156658
33.86118,165896
33.86743,158833
33.87368,158304
33.87995,164579
33.88620,157189
33.89245,163153
33.89872,157791
33.90497,155885
33.91122,157017
33.91748,163609
33.92373,161851
33.92998,161519
33.93625,161304
33.94250,157678
33.94875,160823
33.95500,155002
33.96127,157650
33.96752,157460
33.97377,162080
33.98003,160597
33.98628,162846
33.99253,158003
33.99880,159414
34.00505,161546
34.01130,158496
34.01757,157580
34.02382,156929
34.03007,160117
34.03633,159942
34.04258,162373
34.04883,155720
34.05510,155910
34.06135,162534
34.06760,158787
34.07387,160664
34.08012,160496
34.08637,153551
34.09263,161181
34.09888,153019
34.10513,160875
34.11140,156760
34.11765,156712
34.12390,157430
34.13017,158406
34.13642,155043
34.14267,159273
34.14893,160183
34.15518,159936
34.16143,155294
34.16768,155095
34.17395,158953
34.18020,155670
34.18645,154793
34.19272,157234
34.19897,156279
34.20522,155337
34.21148,156982
34.21773,155141
34.22398,161759
34.23025,157519
34.23650,153598
34.24275,160590
34.24902,159947
34.25527,159531
34.26152,155253
34.26778,157063
34.27403,154123
34.28028,157805
34.28655,158043
34.29280,159479
34.29905,159154
34.30532,154951
34.31157,153012
34.31782,155056
34.32408,158964
34.33033,161935
34.33658,154037
34.34285,156553
34.34910,154584
34.35535,159418
34.36162,152761
34.36787,154814
34.37412,155994
34.38038,157528
34.38663,152703
34.39288,158161
34.39913,160907
34.40540,148691
34.41165,157406
34.41790,156518
34.42417,158449
34.43042,156895
34.43667,153425
34.44293,151080
34.44918,156926
34.45543,157781
34.46170,158390
34.46795,152686
34.47420,161393
34.48047,153886
34.48672,156575
34.49297,157781
34.49923,151936
34.50548,159029
34.51173,158067
34.51800,152992
34.52425,150049
34.53050,155042
34.53677,154041
34.54302,156426
34.54927,153830
34.55553,157486
34.56178,152514
34.56803,157029
34.57430,158445
34.58055,154220
34.58680,152710
34.59307,171953
34.59932,159207
34.60557,160425
34.61182,161111
34.61808,159709
34.62433,153836
34.63058,154835
34.63685,159079
34.64310,152820
34.64935,152121
34.65562,150376
34.66187,160796
34.66812,151107
34.67438,151207
34.68063,160428
34.68688,154810
34.69315,151361
34.69940,155782
34.70565,152622
34.71192,158209
34.71817,149814
34.72442,152809
34.73068,157221
34.73693,155464
34.74318,151537
34.74945,150366
34.75570,153636
34.76195,156175
34.76822,152906
34.77447,151809
34.78072,149652
34.78698,150957
34.79323,150206
34.79948,150090
34.80575,152686
34.81200,152822
34.81825,149163
34.82452,146675
34.83077,148696
34.83702,156300
34.84327,155268
34.84953,153555
34.85578,153774
34.86203,149897
34.86830,154467
34.87455,154361
34.88080,157899
34.88707,152076
34.89332,149548
34.89957,151468
34.90583,147314
34.91208,153727
34.91833,154598
34.92460,153156
34.93085,153162
34.93710,148740
34.94337,154751
34.94962,145851
34.95587,153984
34.96213,146495
34.96838,148212
34.97463,145349
34.98090,147830
34.98715,147080
34.99340,152278
34.99967,147523
35.00592,149238
35.01217,154446
35.01843,146841
35.02468,150485
35.03093,150014
35.03720,153319
35.04345,154761
35.04970,145364
35.05595,151328
35.06222,154244
35.06847,153285
35.07472,150117
35.08098,149703
35.08723,144006
35.09348,148639
35.09975,152314
35.10600,147804
35.11225,152715
35.11852,148258
35.12477,150377
35.13102,153356
35.13728,148471
35.14353,151418
35.14978,146954
35.15605,152483
35.16230,148595
35.16855,151106
35.17482,146287
35.18107,148366
35.18732,147218
35.19358,148100
35.19983,148421
35.20608,152026
35.21235,148175
35.21860,144086
35.22485,149303
35.23112,151181
35.23737,156225
35.24362,147701
35.24988,150585
35.25613,150303
35.26238,149177
35.26863,146853
35.27490,146371
35.28115,168079
35.28740,162414
35.29367,153643
35.29992,170045
35.30617,154658
35.31243,152665
35.31868,146906
35.32493,145978
35.33120,145726
35.33745,148795
35.34370,152751
35.34997,147141
35.35622,149391
35.36247,141527
35.36873,144940
35.37498,150458
35.38123,145850
35.38750,148040
35.39375,149129
35.40000,148857
35.40627,145581
35.41252,151669
35.41877,147766
35.42503,144613
35.43128,148892
35.43753,148008
35.44380,152981
35.45005,148044
35.45630,148531
35.46257,149590
35.46882,147383
35.47507,142696
35.48133,143463
35.48758,145426
35.49383,150451
35.50008,145751
35.50635,151455
35.51260,146537
35.51885,147193
35.52512,146546
35.53137,147878
35.53762,147175
35.54388,142470
35.55013,150732
35.55638,153024
35.56265,151015
35.56890,150887
35.57515,147412
35.58142,149837
35.58767,149519
35.59392,149157
35.60018,150425
35.60643,152710
35.61268,146367
35.61895,148447
35.62520,146840
35.63145,148626
35.63772,152750
35.64397,147109
35.65022,144969
35.65648,143546
35.66273,141704
35.66898,147599
35.67525,148334
35.68150,141960
35.68775,143715
35.69402,147289
35.70027,144767
35.70652,145996
35.71277,142366
35.71903,144188
35.72528,145119
35.73153,143267
35.73780,149346
35.74405,142431
35.75030,148204
35.75657,147361
35.76282,144957
35.76907,147349
35.77533,149775
35.78158,149976
35.78783,145209
35.79410,139483
35.80035,142509
35.80660,144322
35.81287,147722
35.81912,140778
35.82537,145857
35.83163,147560
35.83788,143731
35.84413,145675
35.85040,142978
35.85665,144865
35.86290,146120
35.86917,143501
35.87542,143395
35.88167,143617
35.88793,146949
35.89418,155799
35.90043,148572
35.90670,171999
35.91295,156204
35.91920,167823
35.92545,160107
35.93172,162794
35.93797,163401
35.94422,169745
35.95048,160480
35.95673,153180
35.96298,169455
35.96925,169154
35.97550,170463
35.98175,168394
35.98802,172522
35.99427,167743
36.00052,169082
36.00678,158624
36.01303,174043
36.01928,167242
36.02555,167976
36.03180,163282
36.03805,171979
36.04432,168045
36.05057,162915
36.05682,169557
36.06308,166954
36.06933,169905
36.07558,164449
36.08185,174103
36.08810,163318
36.09435,162750
36.10062,163439
36.10687,173028
36.11312,176200
36.11938,176893
36.12563,180848
36.13188,171271
36.13815,171009
36.14440,170393
36.15065,169877
36.15690,170897
36.16317,166002
36.16942,171403
36.17567,166872
36.18193,169830
36.18818,166140
36.19443,170134
36.20070,168446
36.20695,177217
36.21320,174466
36.21947,174232
36.22572,185326
36.23197,192830
36.23823,200601
36.24448,213680
36.25073,235287
36.25700,260058
36.26325,269097
36.26950,284825
36.27577,302252
36.28202,326488
36.28827,330275
36.29453,340887
36.30078,338355
36.30703,354800
36.31330,355064
36.31955,351416
36.32580,342967
36.33207,322862
36.33832,330712
36.34457,312037
36.35083,284877
36.35708,276817
36.36333,261211
36.36958,251263
36.37585,232462
36.38210,227809
36.38835,221130
36.39462,211340
36.40087,204389
36.40712,201935
36.41338,197396
36.41963,197498
36.42588,187604
36.43215,187822
36.43840,193491
36.44465,191028
36.45092,191045
36.45717,183884
36.46342,182625
36.46968,189108
36.47593,188052
36.48218,181305
36.48845,176508
36.49470,180319
36.50095,178538
36.50722,182791
36.51347,173010
36.51972,173338
36.52598,172647
36.53223,169261
36.53848,174963
36.54475,177877
36.55100,172223
36.55725,174443
36.56352,176842
36.56977,170873
36.57602,168946
36.58228,169574
36.58853,166566
36.59478,160511
36.60103,161539
36.60730,163054
36.61355,163741
36.61980,164091
36.62607,163285
36.63232,158257
36.63857,164585
36.64483,157715
36.65108,161136
36.65733,180264
36.66360,175704
36.66985,184087
36.67610,177097
36.68237,185028
36.68862,178552
36.69487,181575
36.70113,177207
36.70738,174019
36.71363,177443
36.71990,179309
36.72615,175770
36.73240,183632
36.73867,181476
36.74492,174638
36.75117,173240
36.75743,179896
36.76368,177545
36.76993,174632
36.77620,176411
36.78245,177296
36.78870,172389
36.79497,171219
36.80122,172614
36.80747,175042
36.81372,172236
36.81998,172446
36.82623,171184
36.83248,164616
36.83875,167696
36.84500,167695
36.85125,164766
36.85752,161779
36.86377,169328
36.87002,162912
36.87628,168479
36.88253,170471
36.88878,162642
36.89505,169433
36.90130,158669
36.90755,162475
36.91382,166531
36.92007,166328
36.92632,162102
36.93258,158754
36.93883,151111
36.94508,159862
36.95135,167260
36.95760,152365
36.96385,151572
36.97012,158025
36.97637,159257
36.98262,159070
36.98888,164300
36.99513,177099
37.00138,177146
37.00765,171091
37.01390,177314
37.02015,171593
37.02642,167610
37.03267,175128
37.03892,169359
37.04517,171604
37.05143,170593
37.05768,168942
37.06393,178906
37.07020,169705
37.07645,170600
37.08270,167477
37.08897,169928
37.09522,167409
37.10147,161316
37.10773,163996
37.11398,162680
37.12023,164865
37.12650,167821
37.13275,159006
37.13900,168743
37.14527,160580
37.15152,158729
37.15777,162360
37.16403,163950
37.17028,165585
37.17653,157161
37.18280,161228
37.18905,152598
37.19530,157674
37.20157,151329
37.20782,150680
37.21407,150880
37.22033,159254
37.22658,152738
37.23283,154205
37.23910,148515
37.24535,144835
37.25160,149816
37.25785,147029
37.26412,144586
37.27037,148004
37.27662,147954
37.28288,149584
37.28913,149093
37.29538,153187
37.30165,142752
37.30790,145072
37.31415,146453
37.32042,141150
37.32667,140522
37.33292,137445
37.33918,143014
37.34543,146762
37.35168,139636
37.35795,138342
37.36420,142168
37.37045,137447
37.37672,146637
37.38297,142080
37.38922,135428
37.39548,134248
37.40173,142462
37.40798,140307
37.41425,135251
37.42050,137054
37.42675,135554
37.43302,133996
37.43927,137262
37.44552,131457
37.45178,130470
37.45803,136895
37.46428,131858
37.47055,136022
37.47680,135512
37.48305,140409
37.48930,132285
